nm,baseline,100,90,80,70,60,50,40,30,20,0
252,2.723,2.826,2.771,2.927,2.868,2.924,2.86,2.856,2.78,2.845,2.881
253,2.652,2.75,2.688,2.845,2.795,2.853,2.772,2.787,2.697,2.746,2.801
254,2.583,2.682,2.628,2.764,2.726,2.757,2.682,2.732,2.645,2.675,2.733
255,2.51,2.618,2.563,2.691,2.67,2.687,2.616,2.672,2.566,2.603,2.643
256,2.425,2.524,2.47,2.599,2.584,2.586,2.513,2.579,2.486,2.51,2.556
257,2.347,2.449,2.395,2.522,2.508,2.506,2.437,2.518,2.413,2.424,2.471
258,2.259,2.356,2.299,2.415,2.408,2.412,2.337,2.421,2.31,2.332,2.376
259,2.179,2.274,2.227,2.333,2.337,2.328,2.257,2.339,2.235,2.252,2.305
260,2.122,2.222,2.168,2.276,2.279,2.274,2.205,2.283,2.184,2.201,2.247
261,2.079,2.177,2.127,2.233,2.238,2.229,2.158,2.241,2.145,2.157,2.207
262,2.021,2.122,2.075,2.177,2.18,2.17,2.104,2.189,2.092,2.098,2.151
263,1.958,2.059,2.006,2.107,2.117,2.106,2.04,2.122,2.025,2.039,2.081
264,1.886,1.981,1.94,2.024,2.04,2.027,1.961,2.052,1.952,1.963,1.999
265,1.808,1.892,1.848,1.948,1.955,1.943,1.879,1.963,1.867,1.873,1.911
266,1.725,1.808,1.767,1.853,1.869,1.846,1.793,1.869,1.782,1.788,1.823
267,1.65,1.734,1.7,1.785,1.794,1.78,1.726,1.796,1.71,1.715,1.742
268,1.59,1.673,1.634,1.716,1.728,1.712,1.656,1.73,1.644,1.649,1.681
269,1.523,1.604,1.563,1.642,1.661,1.638,1.593,1.663,1.577,1.585,1.612
270,1.456,1.537,1.5,1.578,1.59,1.571,1.522,1.593,1.509,1.519,1.543
271,1.388,1.467,1.438,1.512,1.519,1.502,1.456,1.529,1.447,1.453,1.466
272,1.334,1.406,1.373,1.448,1.46,1.44,1.399,1.466,1.39,1.393,1.399
273,1.284,1.357,1.329,1.4,1.412,1.392,1.35,1.412,1.34,1.343,1.344
274,1.229,1.297,1.274,1.343,1.354,1.333,1.294,1.354,1.286,1.288,1.285
275,1.168,1.237,1.212,1.276,1.29,1.268,1.231,1.29,1.217,1.222,1.216
276,1.111,1.173,1.154,1.219,1.227,1.212,1.176,1.231,1.16,1.166,1.159
277,1.059,1.122,1.104,1.162,1.172,1.155,1.118,1.174,1.106,1.109,1.102
278,1.004,1.067,1.051,1.109,1.121,1.098,1.062,1.121,1.053,1.057,1.048
279,0.957,1.019,1.001,1.056,1.069,1.048,1.017,1.069,1.009,1.012,0.998
280,0.905,0.966,0.951,1.001,1.02,0.996,0.971,1.016,0.952,0.958,0.94
281,0.858,0.914,0.895,0.95,0.965,0.942,0.912,0.964,0.904,0.902,0.893
282,0.813,0.867,0.858,0.91,0.921,0.899,0.871,0.915,0.858,0.864,0.847
283,0.774,0.83,0.816,0.868,0.877,0.863,0.832,0.875,0.82,0.824,0.806
284,0.734,0.784,0.775,0.823,0.834,0.812,0.793,0.83,0.782,0.783,0.763
285,0.696,0.744,0.736,0.785,0.796,0.775,0.754,0.794,0.741,0.742,0.725
286,0.659,0.706,0.7,0.745,0.756,0.735,0.718,0.755,0.705,0.707,0.686
287,0.624,0.671,0.665,0.708,0.717,0.697,0.679,0.715,0.667,0.67,0.648
288,0.591,0.638,0.633,0.673,0.687,0.665,0.646,0.68,0.637,0.638,0.616
289,0.557,0.601,0.596,0.637,0.646,0.627,0.612,0.644,0.602,0.604,0.578
290,0.524,0.568,0.562,0.603,0.615,0.595,0.578,0.612,0.567,0.569,0.545
291,0.497,0.537,0.536,0.576,0.586,0.565,0.55,0.58,0.54,0.542,0.519
292,0.47,0.51,0.509,0.546,0.556,0.536,0.524,0.552,0.512,0.515,0.49
293,0.441,0.482,0.478,0.516,0.526,0.506,0.492,0.52,0.483,0.485,0.458
294,0.415,0.453,0.456,0.489,0.498,0.478,0.466,0.495,0.457,0.458,0.433
295,0.391,0.427,0.429,0.463,0.473,0.454,0.442,0.469,0.433,0.434,0.407
296,0.368,0.404,0.406,0.439,0.45,0.429,0.419,0.444,0.41,0.411,0.384
297,0.349,0.384,0.386,0.418,0.428,0.409,0.4,0.423,0.389,0.391,0.363
298,0.331,0.367,0.368,0.4,0.411,0.39,0.38,0.404,0.371,0.372,0.344
299,0.314,0.347,0.351,0.381,0.392,0.372,0.362,0.386,0.352,0.355,0.324
300,0.294,0.329,0.332,0.361,0.373,0.351,0.345,0.365,0.334,0.335,0.307
301,0.278,0.312,0.315,0.343,0.355,0.334,0.327,0.349,0.317,0.319,0.29
302,0.261,0.294,0.299,0.328,0.339,0.318,0.31,0.331,0.301,0.302,0.274
303,0.247,0.281,0.286,0.314,0.323,0.303,0.296,0.315,0.286,0.288,0.257
304,0.233,0.264,0.271,0.298,0.308,0.287,0.281,0.3,0.271,0.273,0.242
305,0.219,0.25,0.257,0.284,0.295,0.273,0.268,0.285,0.257,0.259,0.228
306,0.207,0.238,0.244,0.272,0.281,0.26,0.255,0.273,0.245,0.245,0.215
307,0.196,0.226,0.233,0.259,0.27,0.248,0.243,0.259,0.233,0.234,0.203
308,0.185,0.216,0.223,0.249,0.258,0.237,0.232,0.249,0.222,0.223,0.193
309,0.175,0.206,0.213,0.238,0.248,0.226,0.222,0.237,0.212,0.213,0.182
310,0.167,0.196,0.204,0.23,0.238,0.217,0.213,0.229,0.203,0.204,0.173
311,0.159,0.189,0.196,0.221,0.231,0.209,0.205,0.22,0.194,0.196,0.164
312,0.151,0.179,0.189,0.213,0.223,0.2,0.196,0.211,0.187,0.187,0.157
313,0.143,0.172,0.18,0.205,0.214,0.192,0.189,0.203,0.178,0.179,0.149
314,0.137,0.166,0.174,0.198,0.207,0.184,0.181,0.195,0.171,0.173,0.142
315,0.131,0.159,0.168,0.192,0.2,0.178,0.175,0.188,0.165,0.166,0.135
316,0.125,0.153,0.162,0.186,0.195,0.172,0.17,0.183,0.159,0.161,0.13
317,0.119,0.147,0.157,0.18,0.188,0.166,0.163,0.176,0.153,0.154,0.123
318,0.114,0.141,0.15,0.174,0.182,0.159,0.157,0.17,0.146,0.148,0.117
319,0.108,0.136,0.145,0.168,0.177,0.154,0.152,0.164,0.141,0.143,0.112
320,0.105,0.132,0.141,0.164,0.173,0.15,0.148,0.16,0.138,0.139,0.108
321,0.1,0.127,0.137,0.159,0.168,0.145,0.143,0.155,0.133,0.134,0.104
322,0.096,0.123,0.132,0.154,0.163,0.14,0.138,0.15,0.128,0.129,0.099
323,0.092,0.118,0.128,0.15,0.158,0.135,0.134,0.145,0.124,0.125,0.095
324,0.088,0.115,0.124,0.146,0.154,0.132,0.13,0.141,0.12,0.121,0.091
325,0.086,0.111,0.121,0.142,0.151,0.128,0.127,0.137,0.117,0.118,0.088
326,0.083,0.108,0.118,0.139,0.148,0.125,0.124,0.134,0.114,0.115,0.085
327,0.08,0.105,0.115,0.136,0.144,0.122,0.121,0.131,0.111,0.112,0.082
328,0.077,0.102,0.112,0.133,0.141,0.119,0.118,0.128,0.108,0.109,0.079
329,0.075,0.1,0.109,0.13,0.138,0.116,0.115,0.125,0.105,0.106,0.077
330,0.073,0.097,0.106,0.127,0.135,0.113,0.112,0.122,0.103,0.104,0.075
331,0.07,0.094,0.103,0.124,0.132,0.11,0.11,0.119,0.1,0.101,0.072
332,0.068,0.092,0.101,0.122,0.13,0.108,0.107,0.117,0.098,0.099,0.07
333,0.067,0.089,0.099,0.12,0.127,0.105,0.105,0.115,0.096,0.097,0.068
334,0.065,0.088,0.097,0.117,0.125,0.103,0.103,0.113,0.094,0.095,0.066
335,0.064,0.086,0.095,0.116,0.123,0.102,0.101,0.111,0.092,0.093,0.065
336,0.062,0.085,0.094,0.114,0.122,0.1,0.1,0.109,0.091,0.091,0.064
337,0.06,0.083,0.092,0.112,0.12,0.098,0.098,0.107,0.089,0.09,0.062
338,0.059,0.081,0.09,0.111,0.118,0.097,0.096,0.105,0.088,0.088,0.061
339,0.058,0.08,0.089,0.109,0.117,0.095,0.095,0.104,0.086,0.087,0.059
340,0.057,0.078,0.087,0.107,0.115,0.094,0.093,0.102,0.084,0.085,0.058
341,0.056,0.077,0.086,0.106,0.114,0.092,0.092,0.101,0.083,0.084,0.057
342,0.055,0.076,0.085,0.105,0.112,0.091,0.091,0.099,0.082,0.083,0.056
343,0.054,0.075,0.084,0.104,0.111,0.09,0.09,0.098,0.081,0.082,0.055
344,0.053,0.074,0.084,0.103,0.111,0.089,0.089,0.097,0.08,0.081,0.054
345,0.052,0.074,0.083,0.102,0.11,0.088,0.088,0.097,0.079,0.08,0.053
346,0.052,0.073,0.082,0.102,0.109,0.087,0.087,0.095,0.078,0.079,0.053
347,0.051,0.073,0.082,0.102,0.109,0.087,0.087,0.095,0.078,0.079,0.052
348,0.051,0.072,0.081,0.101,0.108,0.086,0.086,0.094,0.077,0.078,0.052
349,0.051,0.072,0.081,0.101,0.107,0.086,0.085,0.093,0.077,0.077,0.051
350,0.05,0.071,0.08,0.1,0.107,0.085,0.085,0.093,0.076,0.076,0.051
351,0.049,0.071,0.08,0.1,0.107,0.085,0.085,0.092,0.075,0.076,0.051
352,0.049,0.071,0.08,0.1,0.106,0.084,0.084,0.092,0.075,0.076,0.05
353,0.049,0.07,0.08,0.099,0.106,0.084,0.084,0.091,0.074,0.075,0.05
354,0.048,0.07,0.079,0.099,0.106,0.083,0.083,0.09,0.074,0.074,0.049
355,0.048,0.07,0.079,0.099,0.106,0.083,0.083,0.09,0.073,0.074,0.049
356,0.048,0.07,0.079,0.099,0.106,0.083,0.083,0.09,0.073,0.074,0.049
357,0.048,0.07,0.08,0.099,0.106,0.083,0.082,0.089,0.073,0.073,0.048
358,0.048,0.07,0.08,0.1,0.106,0.082,0.082,0.089,0.072,0.073,0.048
359,0.047,0.07,0.08,0.1,0.106,0.082,0.082,0.089,0.072,0.073,0.048
360,0.047,0.071,0.08,0.1,0.106,0.082,0.082,0.089,0.072,0.072,0.048
361,0.047,0.071,0.081,0.101,0.107,0.082,0.082,0.088,0.071,0.072,0.047
362,0.047,0.071,0.081,0.101,0.107,0.082,0.081,0.088,0.071,0.072,0.047
363,0.046,0.072,0.082,0.102,0.108,0.082,0.081,0.088,0.071,0.072,0.047
364,0.046,0.072,0.082,0.102,0.108,0.082,0.081,0.088,0.071,0.071,0.047
365,0.046,0.072,0.082,0.103,0.108,0.082,0.081,0.088,0.071,0.071,0.046
366,0.046,0.073,0.083,0.103,0.109,0.083,0.082,0.088,0.071,0.071,0.046
367,0.046,0.073,0.084,0.104,0.11,0.083,0.082,0.088,0.07,0.071,0.046
368,0.046,0.074,0.085,0.105,0.11,0.083,0.082,0.088,0.07,0.071,0.046
369,0.046,0.074,0.085,0.106,0.111,0.083,0.082,0.087,0.07,0.071,0.046
370,0.045,0.075,0.086,0.107,0.112,0.083,0.082,0.088,0.07,0.071,0.046
371,0.046,0.075,0.087,0.108,0.113,0.084,0.082,0.088,0.07,0.071,0.046
372,0.046,0.076,0.088,0.109,0.114,0.084,0.082,0.088,0.07,0.071,0.046
373,0.046,0.077,0.089,0.11,0.114,0.084,0.083,0.088,0.07,0.071,0.046
374,0.046,0.078,0.09,0.111,0.116,0.085,0.083,0.088,0.07,0.071,0.046
375,0.046,0.079,0.091,0.112,0.117,0.085,0.083,0.088,0.07,0.071,0.046
376,0.045,0.08,0.092,0.113,0.117,0.085,0.084,0.088,0.07,0.071,0.046
377,0.046,0.081,0.093,0.114,0.118,0.086,0.084,0.088,0.07,0.071,0.046
378,0.046,0.081,0.094,0.116,0.119,0.086,0.084,0.089,0.07,0.071,0.046
379,0.045,0.082,0.095,0.117,0.12,0.086,0.084,0.089,0.07,0.071,0.046
380,0.046,0.083,0.096,0.117,0.121,0.087,0.085,0.089,0.07,0.071,0.046
381,0.046,0.084,0.097,0.119,0.122,0.088,0.085,0.089,0.07,0.071,0.046
382,0.045,0.085,0.098,0.12,0.123,0.088,0.085,0.089,0.07,0.071,0.046
383,0.045,0.086,0.099,0.121,0.124,0.088,0.085,0.089,0.07,0.071,0.046
384,0.045,0.086,0.1,0.122,0.125,0.088,0.086,0.089,0.07,0.071,0.045
385,0.045,0.087,0.101,0.123,0.126,0.089,0.086,0.089,0.07,0.071,0.045
386,0.045,0.088,0.102,0.124,0.127,0.089,0.086,0.089,0.07,0.07,0.045
387,0.045,0.089,0.103,0.125,0.128,0.09,0.086,0.089,0.07,0.07,0.045
388,0.045,0.09,0.104,0.127,0.129,0.09,0.086,0.089,0.069,0.07,0.045
389,0.045,0.09,0.105,0.128,0.13,0.091,0.087,0.089,0.069,0.07,0.045
390,0.045,0.091,0.106,0.129,0.131,0.091,0.087,0.089,0.069,0.07,0.045
391,0.044,0.092,0.107,0.13,0.132,0.091,0.087,0.09,0.069,0.07,0.045
392,0.044,0.093,0.108,0.131,0.133,0.092,0.088,0.09,0.069,0.07,0.045
393,0.044,0.094,0.11,0.132,0.134,0.092,0.088,0.09,0.069,0.07,0.044
394,0.044,0.095,0.11,0.133,0.134,0.092,0.088,0.09,0.069,0.07,0.044
395,0.044,0.095,0.112,0.134,0.135,0.093,0.088,0.09,0.069,0.07,0.044
396,0.044,0.096,0.112,0.135,0.136,0.093,0.089,0.09,0.069,0.07,0.044
397,0.044,0.097,0.114,0.136,0.137,0.094,0.089,0.09,0.069,0.07,0.044
398,0.044,0.098,0.114,0.137,0.138,0.094,0.089,0.09,0.069,0.07,0.044
399,0.044,0.098,0.115,0.138,0.138,0.095,0.089,0.09,0.069,0.07,0.044
400,0.044,0.099,0.116,0.139,0.139,0.095,0.09,0.09,0.069,0.07,0.044
401,0.044,0.1,0.117,0.139,0.14,0.095,0.09,0.09,0.069,0.07,0.044
402,0.044,0.1,0.117,0.14,0.14,0.095,0.09,0.09,0.069,0.07,0.044
403,0.044,0.1,0.118,0.141,0.141,0.096,0.09,0.09,0.069,0.07,0.044
404,0.044,0.101,0.118,0.141,0.141,0.095,0.09,0.09,0.069,0.07,0.044
405,0.044,0.101,0.118,0.141,0.141,0.096,0.09,0.09,0.068,0.069,0.044
406,0.044,0.102,0.119,0.142,0.141,0.096,0.09,0.09,0.068,0.069,0.044
407,0.044,0.102,0.119,0.142,0.141,0.096,0.09,0.089,0.068,0.069,0.044
408,0.044,0.102,0.119,0.142,0.142,0.096,0.09,0.09,0.068,0.07,0.044
409,0.044,0.102,0.119,0.142,0.142,0.096,0.09,0.089,0.068,0.069,0.044
410,0.044,0.102,0.119,0.142,0.141,0.096,0.09,0.089,0.068,0.069,0.044
411,0.044,0.102,0.119,0.142,0.142,0.096,0.09,0.089,0.068,0.069,0.044
412,0.043,0.102,0.119,0.142,0.141,0.096,0.09,0.089,0.068,0.069,0.044
413,0.044,0.102,0.12,0.142,0.141,0.096,0.089,0.089,0.068,0.069,0.043
414,0.043,0.102,0.119,0.142,0.141,0.095,0.089,0.088,0.068,0.069,0.044
415,0.043,0.102,0.119,0.142,0.141,0.095,0.089,0.088,0.067,0.069,0.044
416,0.044,0.102,0.119,0.141,0.141,0.095,0.089,0.088,0.067,0.069,0.044
417,0.043,0.102,0.119,0.141,0.14,0.095,0.089,0.088,0.067,0.068,0.044
418,0.043,0.102,0.118,0.14,0.14,0.095,0.089,0.087,0.067,0.068,0.044
419,0.043,0.102,0.118,0.14,0.139,0.094,0.088,0.087,0.067,0.068,0.044
420,0.043,0.101,0.117,0.139,0.138,0.094,0.088,0.087,0.066,0.067,0.043
421,0.043,0.101,0.117,0.139,0.137,0.094,0.088,0.087,0.066,0.067,0.044
422,0.043,0.1,0.116,0.137,0.137,0.093,0.087,0.086,0.066,0.067,0.044
423,0.043,0.1,0.115,0.137,0.136,0.093,0.087,0.086,0.066,0.067,0.044
424,0.043,0.099,0.114,0.135,0.134,0.092,0.086,0.085,0.066,0.067,0.043
425,0.043,0.098,0.113,0.134,0.133,0.091,0.086,0.085,0.065,0.066,0.043
426,0.043,0.097,0.112,0.133,0.132,0.09,0.085,0.084,0.065,0.066,0.043
427,0.043,0.096,0.11,0.131,0.13,0.09,0.084,0.084,0.065,0.066,0.043
428,0.043,0.095,0.108,0.129,0.128,0.089,0.083,0.083,0.065,0.065,0.043
429,0.043,0.093,0.107,0.127,0.127,0.088,0.083,0.082,0.064,0.065,0.043
430,0.043,0.092,0.105,0.124,0.125,0.086,0.082,0.081,0.063,0.064,0.043
431,0.043,0.09,0.103,0.122,0.123,0.086,0.081,0.081,0.064,0.064,0.044
432,0.043,0.088,0.101,0.12,0.121,0.084,0.08,0.08,0.064,0.064,0.043
433,0.043,0.087,0.099,0.118,0.118,0.083,0.079,0.079,0.063,0.063,0.043
434,0.043,0.085,0.097,0.115,0.116,0.081,0.077,0.078,0.062,0.063,0.043
435,0.043,0.083,0.095,0.113,0.114,0.08,0.076,0.078,0.062,0.062,0.043
436,0.043,0.082,0.093,0.111,0.112,0.079,0.075,0.077,0.062,0.063,0.043
437,0.043,0.08,0.091,0.108,0.11,0.078,0.074,0.076,0.061,0.062,0.043
438,0.043,0.078,0.088,0.106,0.108,0.077,0.073,0.075,0.061,0.061,0.043
439,0.043,0.077,0.086,0.104,0.105,0.075,0.072,0.075,0.061,0.061,0.043
440,0.043,0.075,0.085,0.102,0.104,0.074,0.071,0.074,0.06,0.061,0.043
441,0.043,0.074,0.083,0.1,0.102,0.073,0.071,0.074,0.06,0.06,0.043
442,0.043,0.073,0.081,0.098,0.101,0.073,0.07,0.073,0.06,0.06,0.043
443,0.043,0.071,0.08,0.096,0.099,0.072,0.069,0.073,0.06,0.06,0.043
444,0.043,0.07,0.078,0.095,0.098,0.071,0.069,0.072,0.059,0.06,0.043
445,0.043,0.07,0.077,0.093,0.096,0.07,0.068,0.072,0.059,0.06,0.043
446,0.043,0.068,0.076,0.092,0.095,0.07,0.067,0.071,0.059,0.059,0.043
447,0.042,0.068,0.075,0.091,0.094,0.069,0.067,0.071,0.059,0.059,0.043
448,0.043,0.067,0.074,0.09,0.093,0.068,0.066,0.07,0.058,0.059,0.043
449,0.043,0.066,0.073,0.089,0.092,0.068,0.066,0.07,0.058,0.059,0.043
450,0.043,0.066,0.072,0.088,0.091,0.068,0.066,0.07,0.058,0.059,0.043
451,0.042,0.065,0.071,0.087,0.091,0.067,0.065,0.07,0.058,0.058,0.043
452,0.042,0.064,0.071,0.086,0.09,0.066,0.065,0.069,0.058,0.058,0.043
453,0.042,0.064,0.07,0.086,0.089,0.066,0.065,0.069,0.058,0.058,0.043
454,0.042,0.064,0.07,0.085,0.089,0.066,0.065,0.069,0.057,0.058,0.043
455,0.042,0.063,0.069,0.085,0.089,0.066,0.064,0.068,0.058,0.058,0.043
456,0.042,0.063,0.069,0.084,0.088,0.065,0.064,0.068,0.057,0.058,0.043
457,0.042,0.063,0.069,0.084,0.088,0.065,0.064,0.068,0.057,0.058,0.043
458,0.042,0.063,0.068,0.084,0.087,0.065,0.064,0.068,0.057,0.057,0.043
459,0.042,0.062,0.068,0.083,0.087,0.065,0.063,0.068,0.057,0.057,0.043
460,0.042,0.062,0.068,0.083,0.087,0.065,0.063,0.068,0.057,0.057,0.043
461,0.042,0.062,0.068,0.083,0.087,0.065,0.063,0.068,0.057,0.057,0.043
462,0.042,0.062,0.067,0.083,0.086,0.064,0.063,0.067,0.057,0.057,0.043
463,0.042,0.062,0.068,0.083,0.086,0.064,0.063,0.067,0.057,0.057,0.043
464,0.042,0.062,0.068,0.083,0.086,0.064,0.063,0.067,0.057,0.057,0.042
465,0.042,0.062,0.068,0.083,0.086,0.065,0.063,0.067,0.057,0.057,0.043
466,0.042,0.061,0.067,0.082,0.086,0.064,0.063,0.067,0.056,0.057,0.043
467,0.042,0.061,0.067,0.082,0.086,0.064,0.063,0.067,0.056,0.056,0.043
468,0.042,0.062,0.067,0.082,0.086,0.064,0.063,0.067,0.056,0.057,0.042
469,0.042,0.062,0.067,0.083,0.086,0.064,0.063,0.067,0.056,0.057,0.042
470,0.042,0.062,0.067,0.082,0.086,0.064,0.062,0.067,0.056,0.056,0.042
471,0.042,0.061,0.068,0.083,0.086,0.064,0.062,0.067,0.056,0.056,0.042
472,0.042,0.062,0.067,0.083,0.086,0.064,0.063,0.067,0.056,0.056,0.043
473,0.042,0.062,0.067,0.083,0.086,0.064,0.062,0.067,0.056,0.056,0.043
474,0.042,0.062,0.068,0.083,0.086,0.064,0.062,0.067,0.056,0.056,0.043
475,0.042,0.062,0.068,0.083,0.086,0.064,0.062,0.067,0.056,0.056,0.042
476,0.041,0.062,0.068,0.083,0.086,0.063,0.062,0.066,0.056,0.056,0.042
477,0.042,0.062,0.067,0.083,0.087,0.064,0.062,0.067,0.056,0.056,0.042
478,0.042,0.062,0.068,0.083,0.086,0.064,0.063,0.066,0.056,0.056,0.042
479,0.042,0.062,0.068,0.084,0.087,0.064,0.063,0.066,0.056,0.056,0.042
480,0.042,0.062,0.068,0.083,0.087,0.064,0.062,0.066,0.056,0.056,0.042
481,0.041,0.062,0.068,0.084,0.087,0.064,0.063,0.066,0.056,0.056,0.042
482,0.042,0.063,0.069,0.084,0.087,0.064,0.062,0.066,0.055,0.056,0.042
483,0.042,0.063,0.069,0.084,0.087,0.064,0.062,0.066,0.055,0.056,0.042
484,0.042,0.063,0.069,0.084,0.087,0.064,0.063,0.066,0.055,0.056,0.042
485,0.041,0.063,0.069,0.084,0.087,0.064,0.062,0.066,0.056,0.056,0.042
486,0.041,0.063,0.069,0.085,0.087,0.064,0.062,0.066,0.055,0.056,0.042
487,0.042,0.063,0.07,0.085,0.088,0.064,0.062,0.066,0.055,0.055,0.042
488,0.041,0.063,0.069,0.085,0.088,0.064,0.062,0.066,0.055,0.055,0.042
489,0.042,0.064,0.07,0.085,0.088,0.064,0.062,0.066,0.055,0.056,0.042
490,0.042,0.064,0.07,0.086,0.088,0.064,0.062,0.066,0.055,0.056,0.042
491,0.042,0.064,0.07,0.085,0.088,0.064,0.063,0.066,0.055,0.055,0.042
492,0.041,0.064,0.07,0.086,0.089,0.065,0.063,0.066,0.055,0.056,0.042
493,0.041,0.065,0.071,0.086,0.089,0.064,0.062,0.066,0.055,0.056,0.042
494,0.041,0.065,0.071,0.087,0.089,0.065,0.063,0.066,0.055,0.055,0.042
495,0.041,0.065,0.071,0.087,0.089,0.065,0.063,0.066,0.055,0.055,0.042
496,0.041,0.065,0.071,0.087,0.09,0.065,0.063,0.066,0.055,0.056,0.042
497,0.041,0.065,0.072,0.087,0.09,0.065,0.063,0.066,0.055,0.056,0.042
498,0.042,0.065,0.072,0.087,0.09,0.065,0.063,0.066,0.056,0.055,0.042
499,0.041,0.066,0.072,0.088,0.09,0.065,0.063,0.066,0.055,0.055,0.041
500,0.042,0.066,0.073,0.088,0.091,0.065,0.063,0.066,0.055,0.056,0.042
501,0.041,0.066,0.073,0.088,0.091,0.065,0.063,0.066,0.055,0.056,0.041
502,0.041,0.066,0.073,0.089,0.091,0.065,0.063,0.066,0.055,0.055,0.042
503,0.041,0.066,0.073,0.089,0.091,0.065,0.063,0.066,0.055,0.055,0.041
504,0.041,0.067,0.074,0.089,0.091,0.066,0.063,0.066,0.055,0.055,0.042
505,0.041,0.067,0.074,0.09,0.092,0.065,0.063,0.066,0.055,0.056,0.042
506,0.041,0.067,0.074,0.09,0.092,0.066,0.063,0.066,0.055,0.056,0.042
507,0.041,0.067,0.074,0.09,0.092,0.065,0.063,0.066,0.054,0.055,0.041
508,0.041,0.068,0.075,0.091,0.092,0.066,0.064,0.066,0.055,0.055,0.042
509,0.041,0.068,0.075,0.091,0.093,0.066,0.064,0.066,0.055,0.056,0.041
510,0.041,0.069,0.076,0.092,0.093,0.066,0.064,0.066,0.055,0.055,0.042
511,0.041,0.068,0.076,0.091,0.093,0.066,0.064,0.066,0.055,0.055,0.041
512,0.041,0.069,0.076,0.092,0.095,0.066,0.064,0.067,0.055,0.056,0.042
513,0.041,0.069,0.076,0.092,0.094,0.066,0.064,0.066,0.055,0.055,0.041
514,0.041,0.07,0.077,0.093,0.095,0.067,0.064,0.066,0.055,0.056,0.042
515,0.041,0.07,0.078,0.094,0.095,0.067,0.065,0.067,0.055,0.056,0.042
516,0.041,0.07,0.078,0.094,0.096,0.067,0.064,0.067,0.055,0.056,0.042
517,0.041,0.07,0.079,0.094,0.096,0.067,0.065,0.067,0.055,0.056,0.042
518,0.041,0.071,0.079,0.095,0.096,0.068,0.065,0.067,0.055,0.056,0.042
519,0.041,0.071,0.079,0.095,0.097,0.068,0.065,0.067,0.055,0.056,0.042
520,0.041,0.071,0.079,0.095,0.097,0.068,0.065,0.067,0.055,0.056,0.041
521,0.041,0.071,0.08,0.096,0.097,0.068,0.065,0.067,0.055,0.056,0.041
522,0.041,0.072,0.08,0.096,0.098,0.068,0.065,0.067,0.055,0.055,0.041
523,0.041,0.072,0.081,0.097,0.099,0.068,0.066,0.067,0.055,0.056,0.042
524,0.041,0.072,0.082,0.097,0.099,0.068,0.065,0.068,0.056,0.056,0.042
525,0.04,0.073,0.082,0.098,0.099,0.068,0.065,0.067,0.055,0.056,0.041
526,0.041,0.073,0.082,0.098,0.099,0.069,0.066,0.067,0.055,0.056,0.041
527,0.041,0.073,0.083,0.098,0.1,0.069,0.066,0.067,0.055,0.056,0.041
528,0.041,0.073,0.083,0.099,0.1,0.069,0.066,0.067,0.055,0.056,0.041
529,0.041,0.074,0.084,0.1,0.101,0.069,0.066,0.068,0.055,0.056,0.041
530,0.041,0.074,0.084,0.1,0.101,0.069,0.066,0.067,0.055,0.056,0.041
531,0.041,0.074,0.084,0.1,0.101,0.069,0.066,0.067,0.055,0.056,0.041
532,0.041,0.075,0.085,0.101,0.102,0.07,0.066,0.067,0.055,0.056,0.041
533,0.041,0.075,0.086,0.101,0.102,0.07,0.067,0.068,0.056,0.056,0.041
534,0.041,0.076,0.086,0.102,0.103,0.07,0.067,0.068,0.056,0.056,0.041
535,0.04,0.076,0.086,0.103,0.103,0.07,0.067,0.068,0.055,0.056,0.041
536,0.041,0.077,0.087,0.103,0.104,0.07,0.067,0.068,0.056,0.056,0.041
537,0.041,0.077,0.087,0.104,0.104,0.071,0.067,0.068,0.056,0.056,0.042
538,0.041,0.077,0.088,0.105,0.105,0.071,0.068,0.068,0.056,0.056,0.041
539,0.04,0.078,0.089,0.105,0.106,0.071,0.067,0.068,0.056,0.056,0.041
540,0.041,0.079,0.09,0.106,0.106,0.072,0.068,0.069,0.056,0.056,0.041
541,0.041,0.079,0.09,0.107,0.107,0.071,0.068,0.069,0.056,0.056,0.041
542,0.041,0.079,0.091,0.107,0.107,0.072,0.068,0.069,0.056,0.057,0.041
543,0.041,0.08,0.091,0.107,0.108,0.072,0.068,0.069,0.056,0.057,0.042
544,0.041,0.08,0.091,0.108,0.108,0.072,0.069,0.069,0.056,0.057,0.041
545,0.041,0.081,0.093,0.109,0.109,0.073,0.068,0.069,0.056,0.057,0.042
546,0.04,0.081,0.092,0.11,0.11,0.073,0.069,0.069,0.056,0.056,0.041
547,0.041,0.082,0.094,0.111,0.11,0.073,0.069,0.07,0.056,0.057,0.041
548,0.041,0.082,0.095,0.112,0.111,0.073,0.069,0.07,0.056,0.057,0.041
549,0.041,0.083,0.096,0.113,0.112,0.074,0.07,0.07,0.056,0.057,0.041
550,0.041,0.083,0.096,0.113,0.113,0.074,0.07,0.07,0.056,0.057,0.041
551,0.04,0.084,0.096,0.113,0.113,0.074,0.07,0.07,0.056,0.057,0.041
552,0.04,0.084,0.098,0.114,0.113,0.074,0.07,0.07,0.056,0.057,0.041
553,0.041,0.085,0.098,0.115,0.114,0.075,0.07,0.07,0.056,0.057,0.041
554,0.041,0.086,0.099,0.116,0.115,0.076,0.071,0.071,0.057,0.058,0.042
555,0.041,0.086,0.1,0.116,0.116,0.076,0.071,0.071,0.056,0.057,0.041
556,0.04,0.087,0.1,0.117,0.116,0.076,0.071,0.071,0.057,0.057,0.041
557,0.04,0.087,0.1,0.118,0.117,0.076,0.071,0.071,0.056,0.057,0.041
558,0.04,0.087,0.102,0.118,0.117,0.076,0.071,0.071,0.057,0.058,0.041
559,0.041,0.088,0.103,0.119,0.119,0.077,0.072,0.071,0.057,0.057,0.041
560,0.04,0.088,0.103,0.12,0.119,0.078,0.072,0.072,0.057,0.057,0.041
561,0.041,0.09,0.104,0.121,0.119,0.078,0.073,0.072,0.057,0.058,0.041
562,0.04,0.09,0.105,0.121,0.12,0.078,0.073,0.072,0.057,0.058,0.04
563,0.041,0.091,0.105,0.123,0.121,0.078,0.073,0.072,0.057,0.058,0.041
564,0.04,0.091,0.106,0.123,0.121,0.079,0.073,0.072,0.056,0.058,0.041
565,0.04,0.092,0.107,0.125,0.122,0.079,0.074,0.072,0.058,0.059,0.041
566,0.04,0.092,0.107,0.125,0.123,0.079,0.074,0.072,0.057,0.058,0.041
567,0.04,0.092,0.109,0.126,0.123,0.08,0.074,0.073,0.057,0.058,0.041
568,0.041,0.093,0.11,0.127,0.125,0.08,0.075,0.073,0.058,0.058,0.041
569,0.041,0.094,0.11,0.127,0.126,0.081,0.075,0.073,0.058,0.059,0.041
570,0.04,0.095,0.111,0.128,0.126,0.08,0.075,0.073,0.057,0.059,0.041
571,0.04,0.095,0.112,0.129,0.127,0.081,0.075,0.074,0.057,0.058,0.04
572,0.041,0.096,0.113,0.13,0.127,0.082,0.076,0.074,0.058,0.059,0.041
573,0.041,0.097,0.113,0.13,0.128,0.082,0.075,0.074,0.058,0.059,0.041
574,0.04,0.097,0.115,0.132,0.129,0.082,0.075,0.074,0.058,0.059,0.04
575,0.04,0.098,0.115,0.133,0.129,0.083,0.077,0.074,0.058,0.059,0.041
576,0.04,0.099,0.115,0.133,0.13,0.082,0.076,0.074,0.058,0.059,0.041
577,0.041,0.099,0.116,0.134,0.131,0.083,0.076,0.075,0.058,0.059,0.041
578,0.041,0.1,0.117,0.135,0.132,0.084,0.078,0.075,0.059,0.059,0.042
579,0.041,0.101,0.118,0.136,0.134,0.084,0.078,0.076,0.059,0.059,0.041
580,0.041,0.102,0.119,0.137,0.134,0.085,0.078,0.076,0.059,0.06,0.041
581,0.04,0.101,0.119,0.138,0.135,0.084,0.078,0.075,0.058,0.059,0.041
582,0.04,0.103,0.121,0.14,0.136,0.085,0.079,0.076,0.059,0.06,0.041
583,0.04,0.102,0.121,0.14,0.136,0.085,0.078,0.076,0.058,0.059,0.041
584,0.04,0.104,0.123,0.141,0.138,0.086,0.079,0.077,0.059,0.06,0.041
585,0.04,0.105,0.125,0.142,0.138,0.086,0.08,0.077,0.059,0.06,0.041
586,0.041,0.105,0.125,0.143,0.139,0.087,0.08,0.077,0.059,0.06,0.041
587,0.041,0.107,0.127,0.144,0.141,0.087,0.081,0.077,0.059,0.061,0.041
588,0.04,0.107,0.128,0.145,0.141,0.087,0.081,0.078,0.059,0.06,0.041
589,0.04,0.108,0.128,0.145,0.142,0.088,0.081,0.077,0.059,0.061,0.041
590,0.04,0.109,0.129,0.148,0.143,0.088,0.081,0.078,0.059,0.061,0.041
591,0.041,0.109,0.13,0.148,0.143,0.089,0.082,0.078,0.059,0.061,0.041
592,0.041,0.111,0.132,0.15,0.145,0.091,0.083,0.079,0.06,0.061,0.041
593,0.041,0.112,0.133,0.151,0.146,0.09,0.083,0.079,0.06,0.061,0.041
594,0.041,0.112,0.135,0.153,0.148,0.092,0.084,0.079,0.061,0.062,0.042
595,0.041,0.113,0.135,0.154,0.149,0.092,0.084,0.08,0.06,0.061,0.04
596,0.04,0.115,0.136,0.154,0.149,0.092,0.084,0.079,0.06,0.062,0.04
597,0.04,0.116,0.137,0.156,0.151,0.093,0.085,0.08,0.06,0.062,0.042
598,0.041,0.116,0.139,0.158,0.152,0.094,0.086,0.08,0.06,0.062,0.041
599,0.041,0.117,0.14,0.159,0.153,0.095,0.086,0.08,0.062,0.063,0.041
600,0.041,0.118,0.141,0.16,0.154,0.095,0.086,0.081,0.06,0.061,0.041
601,0.04,0.119,0.142,0.162,0.155,0.096,0.087,0.082,0.061,0.062,0.041
602,0.04,0.12,0.142,0.163,0.156,0.096,0.087,0.08,0.06,0.061,0.041
603,0.04,0.121,0.144,0.164,0.157,0.097,0.088,0.081,0.061,0.062,0.041
604,0.041,0.122,0.146,0.165,0.158,0.099,0.088,0.082,0.062,0.063,0.042
605,0.04,0.123,0.147,0.167,0.16,0.097,0.089,0.082,0.061,0.061,0.04
606,0.04,0.123,0.148,0.168,0.16,0.099,0.089,0.083,0.063,0.063,0.041
607,0.041,0.125,0.15,0.169,0.162,0.101,0.09,0.084,0.063,0.063,0.04
608,0.041,0.126,0.15,0.17,0.162,0.1,0.091,0.083,0.063,0.064,0.041
609,0.041,0.127,0.152,0.171,0.163,0.102,0.092,0.084,0.062,0.064,0.041
610,0.041,0.126,0.152,0.171,0.163,0.101,0.091,0.083,0.061,0.063,0.041
611,0.039,0.127,0.152,0.172,0.163,0.101,0.09,0.082,0.061,0.063,0.04
612,0.04,0.128,0.154,0.174,0.166,0.102,0.092,0.083,0.062,0.064,0.041
613,0.039,0.129,0.153,0.174,0.165,0.102,0.091,0.084,0.063,0.064,0.04
614,0.04,0.13,0.155,0.176,0.167,0.104,0.094,0.084,0.061,0.064,0.041
615,0.041,0.131,0.156,0.176,0.168,0.104,0.094,0.085,0.063,0.065,0.041
616,0.041,0.131,0.158,0.176,0.168,0.104,0.094,0.085,0.062,0.064,0.04
617,0.04,0.132,0.158,0.177,0.168,0.103,0.095,0.085,0.063,0.063,0.04
618,0.041,0.132,0.159,0.178,0.171,0.105,0.095,0.084,0.062,0.064,0.041
619,0.039,0.132,0.158,0.178,0.169,0.104,0.094,0.086,0.063,0.064,0.041
620,0.04,0.133,0.158,0.178,0.169,0.105,0.094,0.085,0.063,0.064,0.04
621,0.04,0.133,0.158,0.179,0.17,0.105,0.095,0.085,0.062,0.064,0.04
622,0.041,0.134,0.16,0.179,0.17,0.106,0.095,0.085,0.063,0.064,0.042
623,0.04,0.133,0.16,0.179,0.17,0.105,0.095,0.085,0.062,0.064,0.041
624,0.041,0.134,0.16,0.18,0.17,0.105,0.095,0.086,0.063,0.064,0.042
625,0.04,0.134,0.16,0.179,0.17,0.106,0.095,0.085,0.063,0.064,0.04
626,0.04,0.133,0.16,0.179,0.17,0.105,0.095,0.086,0.063,0.064,0.041
627,0.04,0.134,0.161,0.18,0.17,0.106,0.096,0.085,0.062,0.064,0.041
628,0.04,0.134,0.161,0.18,0.17,0.106,0.096,0.086,0.063,0.064,0.041
629,0.041,0.134,0.161,0.18,0.171,0.106,0.095,0.085,0.063,0.064,0.041
630,0.04,0.135,0.161,0.18,0.17,0.105,0.095,0.085,0.063,0.064,0.041
631,0.04,0.134,0.16,0.18,0.171,0.106,0.095,0.085,0.063,0.064,0.041
632,0.041,0.134,0.161,0.18,0.17,0.106,0.095,0.086,0.062,0.064,0.041
633,0.04,0.134,0.161,0.18,0.171,0.106,0.096,0.086,0.063,0.064,0.041
634,0.041,0.134,0.161,0.18,0.17,0.105,0.095,0.085,0.061,0.064,0.041
635,0.04,0.135,0.162,0.18,0.171,0.106,0.095,0.086,0.062,0.064,0.041
636,0.04,0.135,0.162,0.18,0.171,0.106,0.095,0.085,0.063,0.064,0.041
637,0.04,0.135,0.163,0.181,0.171,0.106,0.095,0.086,0.063,0.064,0.041
638,0.041,0.135,0.162,0.181,0.172,0.107,0.095,0.086,0.063,0.064,0.041
639,0.04,0.136,0.163,0.181,0.172,0.106,0.095,0.086,0.062,0.064,0.041
640,0.041,0.136,0.162,0.181,0.171,0.107,0.096,0.086,0.062,0.065,0.041
641,0.041,0.137,0.164,0.182,0.172,0.107,0.096,0.086,0.064,0.065,0.042
642,0.041,0.137,0.164,0.183,0.172,0.106,0.095,0.086,0.064,0.064,0.04
643,0.04,0.137,0.164,0.182,0.173,0.107,0.095,0.086,0.062,0.065,0.04
644,0.041,0.138,0.165,0.185,0.174,0.108,0.097,0.086,0.064,0.065,0.04
645,0.04,0.139,0.167,0.186,0.175,0.109,0.098,0.087,0.063,0.065,0.042
646,0.041,0.14,0.167,0.186,0.175,0.109,0.098,0.087,0.064,0.065,0.041
647,0.04,0.14,0.168,0.187,0.176,0.109,0.099,0.088,0.063,0.065,0.042
648,0.04,0.141,0.168,0.187,0.177,0.109,0.098,0.087,0.063,0.065,0.041
649,0.041,0.142,0.171,0.189,0.179,0.111,0.098,0.087,0.064,0.065,0.042
650,0.041,0.143,0.172,0.191,0.179,0.111,0.099,0.088,0.063,0.066,0.041
651,0.041,0.143,0.172,0.191,0.18,0.111,0.1,0.087,0.064,0.065,0.041
652,0.04,0.144,0.174,0.193,0.181,0.112,0.1,0.088,0.063,0.065,0.042
653,0.04,0.145,0.175,0.194,0.183,0.113,0.101,0.089,0.065,0.066,0.041
654,0.04,0.146,0.176,0.195,0.184,0.113,0.102,0.088,0.064,0.066,0.041
655,0.041,0.147,0.177,0.196,0.184,0.115,0.103,0.089,0.064,0.066,0.041
656,0.04,0.149,0.178,0.198,0.185,0.116,0.103,0.089,0.064,0.066,0.041
657,0.04,0.149,0.18,0.199,0.187,0.116,0.104,0.089,0.064,0.065,0.041
658,0.04,0.151,0.181,0.2,0.188,0.117,0.104,0.089,0.064,0.066,0.041
659,0.041,0.152,0.183,0.203,0.19,0.119,0.106,0.091,0.065,0.067,0.041
660,0.039,0.153,0.183,0.203,0.189,0.119,0.105,0.09,0.065,0.067,0.04
661,0.04,0.154,0.184,0.204,0.191,0.119,0.106,0.09,0.065,0.066,0.04
662,0.04,0.156,0.185,0.205,0.192,0.12,0.106,0.091,0.064,0.066,0.04
663,0.04,0.156,0.186,0.207,0.193,0.121,0.107,0.091,0.064,0.066,0.041
664,0.04,0.157,0.187,0.208,0.194,0.123,0.109,0.091,0.065,0.067,0.04
665,0.041,0.159,0.189,0.21,0.196,0.124,0.11,0.092,0.066,0.068,0.042
666,0.04,0.159,0.19,0.21,0.196,0.125,0.11,0.092,0.066,0.067,0.041
667,0.04,0.159,0.191,0.212,0.196,0.125,0.111,0.092,0.065,0.067,0.041
668,0.04,0.16,0.191,0.211,0.197,0.126,0.112,0.092,0.065,0.068,0.041
669,0.04,0.161,0.192,0.212,0.197,0.126,0.112,0.092,0.065,0.067,0.041
670,0.04,0.162,0.193,0.213,0.198,0.128,0.113,0.093,0.066,0.067,0.042
671,0.04,0.161,0.192,0.213,0.198,0.127,0.112,0.091,0.065,0.067,0.04
672,0.04,0.162,0.193,0.213,0.198,0.128,0.113,0.092,0.065,0.067,0.041
673,0.04,0.163,0.193,0.214,0.198,0.129,0.113,0.093,0.066,0.067,0.04
674,0.04,0.163,0.192,0.213,0.197,0.129,0.114,0.092,0.065,0.067,0.041
675,0.04,0.162,0.192,0.213,0.197,0.128,0.113,0.092,0.065,0.066,0.041
676,0.041,0.163,0.192,0.214,0.197,0.13,0.114,0.091,0.065,0.067,0.041
677,0.04,0.162,0.191,0.212,0.196,0.129,0.114,0.091,0.065,0.067,0.04
678,0.041,0.161,0.19,0.21,0.194,0.129,0.114,0.09,0.064,0.066,0.041
679,0.04,0.16,0.189,0.21,0.193,0.129,0.113,0.091,0.064,0.066,0.04
680,0.04,0.159,0.188,0.208,0.193,0.129,0.114,0.09,0.064,0.066,0.041
681,0.04,0.158,0.186,0.206,0.191,0.127,0.113,0.089,0.064,0.065,0.041
682,0.04,0.157,0.184,0.205,0.189,0.127,0.112,0.088,0.064,0.065,0.041
683,0.041,0.156,0.183,0.203,0.187,0.127,0.111,0.089,0.064,0.065,0.041
684,0.04,0.154,0.181,0.201,0.184,0.125,0.11,0.087,0.063,0.064,0.041
685,0.041,0.152,0.178,0.198,0.182,0.124,0.109,0.086,0.062,0.064,0.041
686,0.041,0.15,0.176,0.195,0.179,0.123,0.108,0.086,0.063,0.063,0.041
687,0.039,0.148,0.172,0.191,0.177,0.12,0.106,0.084,0.061,0.063,0.04
688,0.041,0.146,0.17,0.188,0.174,0.119,0.106,0.084,0.061,0.062,0.041
689,0.04,0.142,0.166,0.185,0.171,0.118,0.103,0.082,0.06,0.061,0.04
690,0.04,0.14,0.163,0.182,0.169,0.115,0.102,0.08,0.06,0.062,0.042
691,0.04,0.137,0.16,0.177,0.166,0.115,0.101,0.08,0.059,0.061,0.041
692,0.04,0.134,0.156,0.173,0.161,0.111,0.099,0.078,0.058,0.061,0.041
693,0.04,0.132,0.153,0.17,0.158,0.109,0.098,0.077,0.059,0.059,0.041
694,0.041,0.128,0.148,0.166,0.153,0.106,0.095,0.076,0.057,0.058,0.041
695,0.04,0.126,0.145,0.161,0.149,0.103,0.093,0.075,0.057,0.059,0.041
696,0.04,0.12,0.14,0.156,0.145,0.1,0.09,0.073,0.056,0.057,0.04
697,0.04,0.117,0.137,0.151,0.142,0.099,0.089,0.072,0.056,0.057,0.041
698,0.041,0.113,0.132,0.147,0.137,0.096,0.086,0.07,0.055,0.056,0.04
699,0.04,0.11,0.128,0.143,0.133,0.093,0.084,0.068,0.054,0.055,0.041
700,0.04,0.107,0.123,0.138,0.129,0.09,0.082,0.067,0.053,0.054,0.04
701,0.04,0.104,0.121,0.134,0.125,0.089,0.08,0.066,0.053,0.054,0.04
702,0.041,0.102,0.117,0.131,0.123,0.086,0.078,0.066,0.053,0.054,0.042
703,0.04,0.098,0.113,0.126,0.118,0.084,0.075,0.063,0.052,0.052,0.041
704,0.041,0.095,0.108,0.122,0.114,0.08,0.074,0.063,0.052,0.052,0.041
705,0.041,0.09,0.105,0.118,0.111,0.079,0.073,0.061,0.051,0.053,0.041
706,0.041,0.088,0.101,0.114,0.108,0.076,0.07,0.061,0.051,0.052,0.042
707,0.041,0.085,0.098,0.11,0.105,0.074,0.068,0.06,0.051,0.05,0.041
708,0.04,0.083,0.093,0.106,0.1,0.072,0.066,0.058,0.05,0.05,0.041
709,0.04,0.08,0.091,0.102,0.097,0.069,0.065,0.057,0.05,0.049,0.041
710,0.04,0.078,0.088,0.099,0.095,0.068,0.063,0.057,0.049,0.049,0.041
711,0.041,0.075,0.085,0.097,0.092,0.066,0.062,0.056,0.049,0.049,0.041
712,0.04,0.073,0.083,0.094,0.089,0.064,0.06,0.055,0.049,0.048,0.041
713,0.04,0.071,0.08,0.09,0.087,0.063,0.059,0.055,0.048,0.048,0.041
714,0.04,0.069,0.077,0.088,0.085,0.061,0.058,0.054,0.049,0.048,0.041
715,0.041,0.068,0.075,0.086,0.083,0.06,0.058,0.054,0.048,0.048,0.041
716,0.04,0.066,0.073,0.083,0.08,0.059,0.056,0.053,0.048,0.048,0.041
717,0.04,0.064,0.072,0.081,0.078,0.058,0.055,0.053,0.047,0.048,0.041
718,0.04,0.063,0.07,0.079,0.077,0.057,0.054,0.052,0.048,0.047,0.041
719,0.04,0.061,0.069,0.078,0.075,0.056,0.054,0.052,0.047,0.047,0.041
720,0.04,0.06,0.067,0.076,0.073,0.055,0.052,0.051,0.047,0.047,0.042
721,0.04,0.058,0.065,0.074,0.072,0.054,0.052,0.05,0.047,0.046,0.041
722,0.04,0.058,0.064,0.073,0.071,0.054,0.052,0.05,0.047,0.047,0.041
723,0.041,0.057,0.063,0.072,0.071,0.053,0.052,0.051,0.047,0.047,0.042
724,0.04,0.056,0.062,0.07,0.069,0.052,0.051,0.05,0.046,0.046,0.041
725,0.041,0.056,0.061,0.069,0.067,0.052,0.051,0.05,0.046,0.046,0.041
726,0.04,0.055,0.06,0.068,0.067,0.051,0.049,0.05,0.046,0.046,0.041
727,0.04,0.054,0.059,0.067,0.066,0.05,0.05,0.049,0.046,0.046,0.041
728,0.041,0.054,0.058,0.066,0.065,0.05,0.049,0.049,0.046,0.045,0.04
729,0.04,0.053,0.057,0.065,0.065,0.05,0.049,0.049,0.046,0.045,0.041
730,0.04,0.053,0.057,0.065,0.064,0.05,0.049,0.049,0.046,0.046,0.041
731,0.041,0.053,0.057,0.064,0.064,0.05,0.049,0.049,0.046,0.046,0.042
732,0.04,0.052,0.055,0.063,0.063,0.049,0.048,0.048,0.045,0.045,0.041
733,0.041,0.051,0.055,0.063,0.062,0.049,0.049,0.048,0.046,0.045,0.041
734,0.04,0.051,0.055,0.062,0.061,0.048,0.048,0.048,0.046,0.045,0.041
735,0.041,0.051,0.054,0.062,0.062,0.048,0.048,0.049,0.046,0.046,0.041
736,0.04,0.051,0.054,0.062,0.061,0.048,0.048,0.048,0.046,0.045,0.042
737,0.041,0.05,0.053,0.061,0.061,0.048,0.048,0.048,0.046,0.045,0.041
738,0.041,0.05,0.053,0.06,0.06,0.049,0.048,0.048,0.046,0.046,0.042
739,0.041,0.049,0.052,0.059,0.059,0.048,0.047,0.048,0.045,0.045,0.041
740,0.041,0.05,0.052,0.06,0.059,0.048,0.047,0.047,0.046,0.045,0.042
741,0.04,0.05,0.052,0.059,0.059,0.048,0.047,0.048,0.046,0.045,0.041
742,0.04,0.049,0.051,0.059,0.059,0.047,0.047,0.048,0.045,0.046,0.041
743,0.041,0.049,0.051,0.059,0.058,0.047,0.047,0.048,0.046,0.045,0.041
744,0.04,0.049,0.051,0.058,0.059,0.048,0.047,0.048,0.045,0.045,0.041
745,0.041,0.049,0.052,0.059,0.059,0.047,0.047,0.048,0.046,0.045,0.042
746,0.04,0.048,0.051,0.057,0.057,0.046,0.047,0.047,0.045,0.045,0.041
747,0.04,0.048,0.05,0.058,0.058,0.047,0.047,0.047,0.045,0.044,0.042
748,0.041,0.048,0.05,0.058,0.058,0.047,0.047,0.048,0.046,0.044,0.042
749,0.041,0.049,0.05,0.057,0.058,0.047,0.046,0.047,0.045,0.045,0.042
750,0.04,0.049,0.05,0.057,0.058,0.047,0.048,0.048,0.045,0.045,0.042
751,0.041,0.048,0.05,0.058,0.058,0.047,0.047,0.047,0.045,0.045,0.042
752,0.041,0.048,0.05,0.057,0.058,0.046,0.046,0.048,0.045,0.044,0.042
753,0.041,0.048,0.049,0.056,0.057,0.047,0.046,0.047,0.045,0.044,0.041
754,0.041,0.048,0.049,0.058,0.058,0.047,0.046,0.047,0.046,0.045,0.042
755,0.041,0.047,0.049,0.057,0.057,0.046,0.047,0.047,0.046,0.045,0.042
756,0.041,0.048,0.05,0.056,0.057,0.047,0.046,0.048,0.045,0.045,0.042
757,0.04,0.047,0.048,0.056,0.056,0.046,0.046,0.047,0.045,0.044,0.042
758,0.041,0.048,0.049,0.056,0.056,0.047,0.047,0.047,0.046,0.045,0.042
759,0.04,0.047,0.048,0.056,0.056,0.045,0.046,0.048,0.044,0.045,0.041
760,0.04,0.047,0.048,0.056,0.056,0.046,0.047,0.047,0.045,0.045,0.041
761,0.041,0.048,0.049,0.056,0.056,0.046,0.046,0.047,0.045,0.044,0.042
762,0.04,0.048,0.048,0.056,0.055,0.046,0.046,0.048,0.046,0.045,0.042
763,0.04,0.047,0.048,0.055,0.055,0.045,0.046,0.046,0.044,0.044,0.041
764,0.04,0.047,0.049,0.056,0.056,0.046,0.046,0.046,0.044,0.044,0.041
765,0.04,0.047,0.049,0.055,0.055,0.046,0.046,0.047,0.045,0.045,0.042
766,0.041,0.047,0.048,0.056,0.055,0.046,0.046,0.047,0.045,0.044,0.041
767,0.041,0.047,0.048,0.055,0.055,0.046,0.046,0.047,0.045,0.045,0.042
768,0.04,0.046,0.047,0.055,0.055,0.046,0.046,0.047,0.046,0.045,0.041
769,0.041,0.047,0.048,0.055,0.056,0.046,0.047,0.047,0.046,0.045,0.042
770,0.041,0.046,0.047,0.055,0.055,0.046,0.046,0.048,0.045,0.045,0.041
771,0.041,0.047,0.048,0.055,0.055,0.045,0.046,0.048,0.045,0.043,0.042
772,0.04,0.047,0.048,0.055,0.054,0.047,0.046,0.047,0.045,0.044,0.041
773,0.041,0.047,0.046,0.054,0.056,0.046,0.046,0.048,0.046,0.045,0.042
774,0.041,0.047,0.048,0.055,0.056,0.045,0.047,0.048,0.046,0.045,0.043
775,0.041,0.047,0.047,0.055,0.055,0.046,0.045,0.047,0.045,0.044,0.041
776,0.041,0.047,0.047,0.055,0.055,0.046,0.046,0.047,0.046,0.045,0.043
777,0.039,0.045,0.047,0.053,0.054,0.045,0.045,0.047,0.044,0.044,0.042
778,0.04,0.045,0.046,0.054,0.054,0.046,0.046,0.047,0.045,0.044,0.042
779,0.041,0.046,0.046,0.053,0.054,0.045,0.046,0.046,0.045,0.044,0.042
780,0.041,0.046,0.047,0.055,0.054,0.046,0.047,0.048,0.046,0.044,0.043
781,0.042,0.046,0.047,0.054,0.054,0.046,0.046,0.048,0.045,0.044,0.043
782,0.041,0.046,0.047,0.054,0.053,0.045,0.044,0.046,0.044,0.045,0.041
783,0.041,0.045,0.047,0.054,0.054,0.046,0.046,0.048,0.045,0.044,0.042
784,0.041,0.046,0.047,0.054,0.054,0.045,0.046,0.047,0.045,0.045,0.042
785,0.041,0.047,0.047,0.054,0.054,0.047,0.046,0.047,0.045,0.045,0.044
786,0.039,0.046,0.046,0.053,0.052,0.044,0.045,0.046,0.044,0.044,0.042
787,0.04,0.045,0.045,0.053,0.052,0.044,0.045,0.047,0.045,0.043,0.041
788,0.039,0.045,0.045,0.053,0.054,0.045,0.045,0.046,0.044,0.045,0.042
789,0.042,0.046,0.046,0.054,0.055,0.046,0.047,0.048,0.046,0.045,0.043
790,0.041,0.046,0.046,0.053,0.054,0.045,0.045,0.046,0.045,0.045,0.042
791,0.04,0.046,0.045,0.053,0.053,0.044,0.045,0.046,0.045,0.044,0.042
792,0.04,0.045,0.045,0.052,0.054,0.044,0.046,0.047,0.044,0.043,0.041
793,0.041,0.046,0.047,0.054,0.053,0.046,0.046,0.047,0.045,0.045,0.042
794,0.041,0.046,0.045,0.053,0.053,0.045,0.045,0.046,0.043,0.043,0.042
795,0.04,0.046,0.046,0.053,0.055,0.046,0.046,0.047,0.045,0.045,0.043
796,0.04,0.046,0.046,0.053,0.054,0.046,0.045,0.046,0.044,0.044,0.041
797,0.042,0.046,0.047,0.054,0.054,0.045,0.046,0.047,0.046,0.045,0.043
798,0.041,0.046,0.046,0.053,0.053,0.045,0.046,0.047,0.045,0.044,0.042
799,0.041,0.045,0.044,0.053,0.051,0.045,0.046,0.046,0.044,0.044,0.041
800,0.041,0.046,0.045,0.052,0.054,0.046,0.046,0.047,0.046,0.045,0.042
801,0.04,0.046,0.046,0.053,0.053,0.046,0.046,0.048,0.045,0.044,0.042
802,0.041,0.046,0.046,0.053,0.054,0.045,0.047,0.046,0.044,0.045,0.043
803,0.041,0.046,0.046,0.053,0.054,0.046,0.045,0.046,0.045,0.044,0.042
804,0.041,0.046,0.045,0.052,0.052,0.045,0.046,0.047,0.045,0.044,0.042
805,0.041,0.046,0.046,0.052,0.053,0.045,0.046,0.047,0.045,0.046,0.043
806,0.041,0.046,0.045,0.053,0.053,0.045,0.046,0.047,0.044,0.043,0.042
807,0.04,0.045,0.045,0.052,0.053,0.044,0.046,0.046,0.044,0.044,0.043
808,0.041,0.046,0.046,0.052,0.053,0.046,0.045,0.048,0.044,0.043,0.043
809,0.041,0.046,0.045,0.051,0.052,0.046,0.046,0.047,0.044,0.045,0.042
810,0.041,0.046,0.046,0.052,0.053,0.044,0.046,0.046,0.045,0.045,0.043
811,0.042,0.046,0.046,0.052,0.053,0.045,0.046,0.046,0.045,0.045,0.042
812,0.04,0.045,0.044,0.052,0.053,0.045,0.045,0.048,0.045,0.044,0.042
813,0.041,0.045,0.045,0.052,0.053,0.045,0.046,0.047,0.045,0.044,0.042
814,0.041,0.045,0.045,0.053,0.052,0.045,0.046,0.046,0.045,0.044,0.043
815,0.04,0.045,0.044,0.051,0.052,0.044,0.044,0.046,0.044,0.044,0.042
816,0.041,0.045,0.045,0.053,0.052,0.046,0.046,0.047,0.045,0.043,0.043
817,0.041,0.045,0.046,0.053,0.053,0.045,0.046,0.046,0.045,0.045,0.042
818,0.042,0.045,0.044,0.051,0.053,0.044,0.045,0.046,0.045,0.043,0.042
819,0.041,0.045,0.045,0.052,0.053,0.045,0.045,0.047,0.045,0.045,0.043
820,0.041,0.045,0.046,0.051,0.052,0.044,0.045,0.046,0.045,0.044,0.043
821,0.041,0.045,0.045,0.051,0.052,0.045,0.045,0.046,0.044,0.044,0.042
822,0.041,0.045,0.045,0.051,0.052,0.045,0.045,0.046,0.045,0.045,0.042
823,0.041,0.045,0.045,0.051,0.052,0.045,0.045,0.046,0.044,0.044,0.042
824,0.041,0.045,0.045,0.052,0.051,0.045,0.045,0.046,0.044,0.044,0.042
825,0.041,0.045,0.045,0.051,0.052,0.044,0.045,0.046,0.044,0.044,0.042
826,0.041,0.045,0.044,0.051,0.052,0.045,0.045,0.046,0.044,0.043,0.042
827,0.041,0.046,0.045,0.052,0.052,0.045,0.045,0.046,0.045,0.044,0.043
828,0.041,0.046,0.045,0.052,0.052,0.045,0.046,0.046,0.045,0.044,0.043
829,0.041,0.045,0.045,0.052,0.052,0.045,0.045,0.046,0.045,0.044,0.043
830,0.041,0.045,0.045,0.051,0.053,0.045,0.046,0.047,0.045,0.044,0.043
831,0.04,0.045,0.045,0.051,0.052,0.045,0.045,0.046,0.045,0.044,0.042
832,0.04,0.046,0.045,0.051,0.051,0.045,0.045,0.047,0.045,0.044,0.043
833,0.041,0.045,0.045,0.051,0.052,0.045,0.045,0.046,0.044,0.044,0.042
834,0.041,0.045,0.044,0.051,0.052,0.045,0.045,0.046,0.044,0.044,0.042
835,0.04,0.045,0.045,0.051,0.051,0.045,0.045,0.046,0.045,0.044,0.043
836,0.04,0.045,0.044,0.051,0.052,0.045,0.045,0.046,0.044,0.044,0.042
837,0.041,0.045,0.045,0.051,0.052,0.045,0.044,0.045,0.044,0.044,0.042
838,0.039,0.044,0.042,0.05,0.051,0.044,0.045,0.045,0.043,0.042,0.042
839,0.04,0.046,0.045,0.051,0.051,0.044,0.045,0.046,0.045,0.044,0.043
840,0.04,0.045,0.045,0.051,0.051,0.045,0.046,0.046,0.044,0.044,0.041
841,0.041,0.046,0.045,0.051,0.051,0.046,0.046,0.047,0.045,0.044,0.043
842,0.041,0.046,0.044,0.051,0.052,0.045,0.044,0.046,0.044,0.044,0.042
843,0.041,0.045,0.046,0.051,0.05,0.045,0.046,0.048,0.044,0.045,0.043
844,0.042,0.045,0.045,0.052,0.052,0.045,0.044,0.047,0.044,0.043,0.043
845,0.042,0.046,0.045,0.051,0.051,0.046,0.045,0.047,0.046,0.045,0.043
846,0.039,0.045,0.045,0.05,0.052,0.044,0.045,0.045,0.044,0.044,0.042
847,0.041,0.044,0.043,0.051,0.05,0.045,0.044,0.046,0.044,0.044,0.044
848,0.04,0.046,0.045,0.05,0.051,0.045,0.044,0.045,0.044,0.044,0.044
849,0.04,0.044,0.044,0.05,0.051,0.045,0.046,0.046,0.044,0.044,0.043
850,0.041,0.044,0.044,0.052,0.051,0.044,0.045,0.046,0.045,0.044,0.042
851,0.041,0.043,0.044,0.05,0.051,0.044,0.045,0.046,0.044,0.043,0.043
852,0.04,0.045,0.045,0.052,0.051,0.045,0.046,0.045,0.044,0.045,0.043
853,0.041,0.046,0.045,0.051,0.052,0.045,0.045,0.048,0.045,0.045,0.043
854,0.039,0.044,0.044,0.051,0.05,0.045,0.045,0.045,0.043,0.045,0.043
855,0.041,0.045,0.045,0.051,0.053,0.046,0.045,0.047,0.044,0.046,0.043
856,0.04,0.044,0.043,0.05,0.05,0.043,0.045,0.046,0.045,0.044,0.042
857,0.042,0.046,0.045,0.05,0.05,0.045,0.048,0.047,0.044,0.045,0.044
858,0.04,0.045,0.046,0.052,0.052,0.046,0.045,0.046,0.045,0.044,0.044
859,0.04,0.045,0.043,0.05,0.05,0.044,0.044,0.045,0.045,0.044,0.043
860,0.04,0.044,0.043,0.05,0.05,0.043,0.045,0.045,0.043,0.044,0.043
861,0.043,0.045,0.044,0.05,0.052,0.046,0.046,0.046,0.045,0.044,0.043
862,0.041,0.046,0.044,0.051,0.052,0.044,0.045,0.046,0.045,0.044,0.042
863,0.042,0.045,0.045,0.051,0.052,0.044,0.047,0.046,0.044,0.045,0.044
864,0.041,0.044,0.045,0.051,0.052,0.045,0.045,0.046,0.045,0.045,0.045
865,0.041,0.044,0.044,0.05,0.05,0.044,0.044,0.046,0.044,0.044,0.044
866,0.041,0.045,0.043,0.049,0.051,0.043,0.046,0.044,0.044,0.045,0.041
867,0.041,0.045,0.045,0.05,0.051,0.044,0.045,0.045,0.044,0.042,0.044
868,0.04,0.045,0.044,0.05,0.051,0.045,0.044,0.045,0.043,0.043,0.043
869,0.041,0.045,0.045,0.051,0.051,0.045,0.045,0.046,0.044,0.044,0.043
870,0.041,0.046,0.043,0.052,0.051,0.044,0.046,0.046,0.045,0.044,0.043
871,0.042,0.045,0.044,0.049,0.05,0.046,0.044,0.045,0.044,0.044,0.043
872,0.043,0.046,0.045,0.051,0.051,0.046,0.047,0.047,0.045,0.044,0.045
873,0.042,0.045,0.044,0.051,0.051,0.045,0.046,0.046,0.045,0.044,0.044
874,0.042,0.045,0.045,0.05,0.051,0.045,0.046,0.047,0.044,0.044,0.044
875,0.041,0.045,0.045,0.05,0.052,0.045,0.045,0.046,0.045,0.043,0.043
876,0.041,0.044,0.044,0.049,0.051,0.045,0.044,0.045,0.044,0.043,0.042
877,0.04,0.045,0.043,0.05,0.05,0.044,0.045,0.045,0.044,0.042,0.042
878,0.041,0.045,0.043,0.05,0.05,0.045,0.045,0.045,0.044,0.044,0.043
879,0.041,0.045,0.044,0.05,0.051,0.044,0.045,0.046,0.045,0.044,0.043
880,0.041,0.045,0.044,0.05,0.051,0.045,0.045,0.046,0.045,0.044,0.043
881,0.041,0.045,0.044,0.05,0.05,0.044,0.045,0.045,0.044,0.043,0.043
882,0.041,0.045,0.044,0.05,0.051,0.045,0.045,0.046,0.044,0.044,0.043
883,0.041,0.045,0.044,0.05,0.05,0.044,0.045,0.046,0.044,0.044,0.043
884,0.041,0.045,0.044,0.05,0.05,0.044,0.045,0.046,0.044,0.044,0.043
885,0.041,0.045,0.044,0.05,0.051,0.045,0.045,0.046,0.045,0.044,0.043
886,0.041,0.044,0.044,0.05,0.051,0.044,0.045,0.046,0.044,0.044,0.043
887,0.041,0.045,0.044,0.05,0.051,0.045,0.045,0.046,0.044,0.044,0.043
888,0.042,0.046,0.044,0.05,0.05,0.045,0.046,0.046,0.044,0.044,0.044
889,0.042,0.044,0.044,0.05,0.051,0.044,0.045,0.046,0.044,0.044,0.044
890,0.042,0.045,0.044,0.05,0.05,0.044,0.045,0.045,0.045,0.044,0.043
891,0.042,0.045,0.043,0.05,0.051,0.045,0.045,0.047,0.044,0.044,0.043
892,0.041,0.044,0.044,0.049,0.05,0.044,0.044,0.045,0.044,0.044,0.043
893,0.042,0.046,0.044,0.05,0.05,0.045,0.045,0.046,0.045,0.044,0.044
894,0.041,0.045,0.044,0.05,0.051,0.044,0.045,0.046,0.045,0.044,0.043
895,0.041,0.045,0.043,0.05,0.05,0.045,0.044,0.045,0.044,0.044,0.043
896,0.041,0.044,0.043,0.05,0.05,0.044,0.045,0.045,0.044,0.044,0.043
897,0.041,0.046,0.044,0.05,0.05,0.044,0.045,0.046,0.044,0.043,0.043
898,0.041,0.045,0.043,0.049,0.05,0.044,0.045,0.045,0.044,0.044,0.043
899,0.041,0.045,0.044,0.05,0.051,0.045,0.046,0.046,0.045,0.044,0.043
900,0.042,0.046,0.044,0.051,0.05,0.046,0.046,0.046,0.045,0.044,0.044
901,0.042,0.046,0.044,0.049,0.051,0.044,0.045,0.046,0.045,0.043,0.044
902,0.041,0.044,0.043,0.049,0.05,0.044,0.044,0.045,0.043,0.043,0.043
903,0.041,0.045,0.043,0.05,0.05,0.044,0.044,0.046,0.044,0.044,0.043
904,0.041,0.044,0.043,0.05,0.05,0.045,0.045,0.045,0.044,0.044,0.043
905,0.041,0.045,0.043,0.049,0.05,0.044,0.044,0.046,0.044,0.043,0.043
906,0.042,0.045,0.043,0.049,0.05,0.044,0.044,0.046,0.044,0.044,0.044
907,0.041,0.045,0.044,0.05,0.05,0.045,0.044,0.045,0.044,0.043,0.043
908,0.041,0.045,0.044,0.049,0.05,0.044,0.045,0.045,0.044,0.042,0.043
909,0.041,0.045,0.043,0.049,0.05,0.044,0.045,0.046,0.044,0.043,0.044
910,0.04,0.045,0.043,0.049,0.049,0.045,0.043,0.046,0.043,0.043,0.043
911,0.041,0.044,0.043,0.05,0.049,0.043,0.045,0.046,0.044,0.043,0.043
912,0.041,0.045,0.043,0.05,0.049,0.044,0.045,0.046,0.044,0.043,0.043
913,0.041,0.045,0.043,0.049,0.05,0.044,0.044,0.045,0.044,0.044,0.044
914,0.04,0.044,0.044,0.049,0.049,0.044,0.045,0.045,0.044,0.044,0.043
915,0.041,0.044,0.043,0.049,0.049,0.044,0.044,0.045,0.044,0.043,0.043
916,0.04,0.044,0.043,0.049,0.05,0.044,0.044,0.045,0.044,0.043,0.043
917,0.041,0.044,0.043,0.049,0.05,0.044,0.045,0.046,0.044,0.044,0.043
918,0.041,0.045,0.044,0.049,0.05,0.044,0.045,0.045,0.044,0.044,0.044
919,0.042,0.045,0.043,0.05,0.05,0.045,0.046,0.045,0.045,0.044,0.044
920,0.041,0.044,0.043,0.049,0.049,0.044,0.044,0.045,0.044,0.044,0.043
921,0.039,0.044,0.043,0.048,0.048,0.043,0.044,0.044,0.043,0.043,0.043
922,0.041,0.045,0.043,0.051,0.05,0.045,0.046,0.045,0.044,0.043,0.044
923,0.042,0.045,0.044,0.051,0.05,0.045,0.045,0.047,0.045,0.045,0.045
924,0.041,0.046,0.043,0.05,0.051,0.045,0.046,0.045,0.044,0.043,0.044
925,0.042,0.046,0.044,0.049,0.051,0.045,0.047,0.046,0.045,0.046,0.045
926,0.043,0.045,0.044,0.049,0.051,0.043,0.044,0.047,0.044,0.044,0.045
927,0.042,0.045,0.044,0.049,0.051,0.044,0.044,0.046,0.044,0.046,0.044
928,0.041,0.045,0.042,0.049,0.051,0.043,0.044,0.045,0.044,0.042,0.043
929,0.043,0.046,0.042,0.05,0.05,0.045,0.045,0.046,0.045,0.045,0.045
930,0.041,0.045,0.042,0.049,0.05,0.044,0.045,0.044,0.044,0.044,0.042
931,0.043,0.045,0.044,0.05,0.049,0.044,0.044,0.045,0.043,0.042,0.045
932,0.041,0.044,0.043,0.048,0.049,0.045,0.045,0.047,0.043,0.044,0.044
933,0.043,0.045,0.043,0.048,0.049,0.044,0.044,0.046,0.044,0.042,0.044
934,0.041,0.045,0.043,0.049,0.05,0.043,0.045,0.045,0.043,0.044,0.044
935,0.041,0.044,0.043,0.049,0.049,0.044,0.045,0.045,0.044,0.043,0.044
936,0.041,0.046,0.043,0.049,0.05,0.045,0.045,0.045,0.044,0.045,0.044
937,0.041,0.045,0.043,0.048,0.05,0.044,0.044,0.045,0.044,0.043,0.044
938,0.042,0.044,0.043,0.049,0.049,0.043,0.044,0.045,0.044,0.043,0.044
939,0.041,0.045,0.044,0.048,0.05,0.044,0.045,0.045,0.045,0.043,0.044
940,0.042,0.045,0.043,0.05,0.049,0.045,0.045,0.046,0.044,0.044,0.045
941,0.041,0.045,0.043,0.049,0.051,0.044,0.045,0.045,0.044,0.044,0.044
942,0.042,0.044,0.044,0.05,0.05,0.044,0.045,0.045,0.045,0.045,0.044
943,0.041,0.046,0.043,0.049,0.05,0.045,0.046,0.045,0.044,0.044,0.044
944,0.042,0.043,0.042,0.049,0.049,0.044,0.044,0.044,0.044,0.043,0.044
945,0.041,0.045,0.044,0.048,0.048,0.044,0.045,0.045,0.044,0.044,0.044
946,0.042,0.044,0.044,0.049,0.05,0.044,0.045,0.045,0.044,0.044,0.045
947,0.042,0.044,0.043,0.049,0.05,0.044,0.045,0.046,0.045,0.043,0.044
948,0.041,0.044,0.043,0.049,0.05,0.044,0.044,0.044,0.044,0.043,0.043
949,0.042,0.045,0.043,0.049,0.05,0.043,0.045,0.045,0.044,0.043,0.043
950,0.042,0.045,0.044,0.049,0.049,0.045,0.044,0.045,0.044,0.043,0.043
951,0.041,0.045,0.044,0.049,0.05,0.045,0.044,0.045,0.044,0.044,0.044
952,0.042,0.044,0.043,0.049,0.05,0.044,0.045,0.045,0.044,0.044,0.044
953,0.04,0.044,0.042,0.048,0.049,0.044,0.043,0.046,0.043,0.043,0.043
954,0.042,0.044,0.043,0.049,0.05,0.043,0.044,0.045,0.044,0.044,0.044
955,0.042,0.045,0.043,0.05,0.048,0.043,0.045,0.045,0.045,0.044,0.044
956,0.041,0.046,0.044,0.05,0.05,0.044,0.045,0.046,0.044,0.045,0.043
957,0.041,0.044,0.042,0.049,0.05,0.043,0.045,0.045,0.044,0.043,0.045
958,0.041,0.044,0.043,0.05,0.05,0.045,0.045,0.044,0.043,0.043,0.044
959,0.042,0.045,0.044,0.05,0.052,0.045,0.046,0.045,0.045,0.046,0.046
960,0.041,0.044,0.043,0.048,0.049,0.043,0.045,0.045,0.044,0.043,0.044
961,0.041,0.044,0.042,0.048,0.047,0.043,0.044,0.044,0.043,0.043,0.043
962,0.042,0.045,0.044,0.049,0.051,0.044,0.047,0.045,0.046,0.044,0.045
963,0.042,0.045,0.044,0.049,0.05,0.045,0.045,0.044,0.043,0.043,0.045
964,0.041,0.044,0.042,0.049,0.049,0.043,0.044,0.044,0.042,0.043,0.045
965,0.041,0.044,0.041,0.047,0.048,0.043,0.043,0.045,0.043,0.043,0.044
966,0.04,0.043,0.042,0.048,0.048,0.043,0.042,0.045,0.044,0.041,0.043
967,0.042,0.043,0.041,0.049,0.049,0.043,0.045,0.044,0.044,0.043,0.044
968,0.042,0.046,0.044,0.048,0.05,0.045,0.044,0.046,0.044,0.043,0.045
969,0.041,0.044,0.043,0.05,0.049,0.044,0.045,0.045,0.043,0.044,0.044
970,0.042,0.044,0.043,0.048,0.05,0.046,0.045,0.045,0.045,0.043,0.045
971,0.043,0.046,0.042,0.05,0.05,0.045,0.046,0.047,0.044,0.044,0.045
972,0.041,0.044,0.042,0.049,0.048,0.044,0.046,0.044,0.044,0.043,0.043
973,0.041,0.045,0.044,0.048,0.048,0.046,0.043,0.045,0.044,0.043,0.044
974,0.042,0.045,0.044,0.049,0.049,0.045,0.045,0.045,0.044,0.044,0.045
975,0.042,0.044,0.043,0.048,0.048,0.044,0.045,0.044,0.044,0.043,0.044
976,0.041,0.045,0.044,0.048,0.048,0.045,0.045,0.045,0.044,0.043,0.044
977,0.041,0.045,0.044,0.049,0.049,0.045,0.045,0.045,0.044,0.043,0.044
978,0.042,0.045,0.043,0.049,0.049,0.044,0.045,0.045,0.044,0.044,0.045
979,0.041,0.044,0.042,0.048,0.048,0.043,0.044,0.044,0.043,0.043,0.043
980,0.041,0.045,0.043,0.048,0.049,0.045,0.045,0.045,0.044,0.043,0.045
981,0.042,0.044,0.042,0.047,0.049,0.044,0.044,0.045,0.044,0.043,0.044
982,0.042,0.044,0.043,0.048,0.049,0.044,0.044,0.045,0.044,0.042,0.044
983,0.041,0.044,0.043,0.048,0.048,0.044,0.044,0.046,0.044,0.042,0.044
984,0.043,0.046,0.045,0.051,0.049,0.044,0.046,0.046,0.044,0.044,0.046
985,0.041,0.047,0.044,0.049,0.049,0.045,0.046,0.046,0.045,0.044,0.047
986,0.044,0.045,0.044,0.049,0.049,0.045,0.044,0.046,0.043,0.043,0.046
987,0.04,0.043,0.041,0.048,0.047,0.043,0.043,0.043,0.041,0.043,0.042
988,0.042,0.045,0.044,0.048,0.049,0.044,0.045,0.045,0.043,0.044,0.045
989,0.042,0.045,0.045,0.049,0.049,0.045,0.045,0.046,0.044,0.044,0.045
990,0.041,0.045,0.043,0.048,0.049,0.044,0.045,0.045,0.043,0.042,0.044
991,0.041,0.045,0.042,0.048,0.048,0.044,0.044,0.045,0.044,0.043,0.045
992,0.042,0.044,0.042,0.047,0.048,0.044,0.044,0.045,0.044,0.043,0.044
993,0.041,0.045,0.043,0.049,0.048,0.044,0.045,0.045,0.044,0.043,0.045
994,0.042,0.045,0.043,0.049,0.049,0.044,0.045,0.046,0.044,0.044,0.044
995,0.041,0.044,0.043,0.049,0.049,0.044,0.045,0.046,0.044,0.043,0.044
996,0.041,0.046,0.043,0.048,0.049,0.043,0.045,0.044,0.043,0.043,0.043
997,0.041,0.043,0.045,0.048,0.049,0.044,0.044,0.045,0.044,0.044,0.045
998,0.041,0.044,0.043,0.049,0.048,0.044,0.044,0.045,0.045,0.044,0.044
,,,,,,,,,,,
,,,,,,,,,,,
,,,,,,,,,,,
,1,2,3,4,5,6,7,8,9,10,11
A,2.999,2.999,2.996,2.927,3,2.924,2.946,2.998,2.998,2.92,2.974
B,?????,?????,?????,?????,?????,?????,?????,?????,?????,?????,?????
C,?????,?????,?????,?????,?????,?????,?????,?????,?????,?????,?????
D,?????,?????,?????,?????,?????,?????,?????,?????,?????,?????,?????
E,?????,?????,?????,?????,?????,?????,?????,?????,?????,?????,?????
F,?????,?????,?????,?????,?????,?????,?????,?????,?????,?????,?????
G,?????,?????,?????,?????,?????,?????,?????,?????,?????,?????,?????
H,?????,?????,?????,?????,?????,?????,?????,?????,?????,?????,?????
