Batch	scan055
EV300 154404	100%T Baseline Correction
idtbt_ps_60 Cycle01	3/10/2021 11:11:14AM
nm	A
300.00	0.02237822
301.00	0.02402478
302.00	0.02496514
303.00	0.02442772
304.00	0.02418660
305.00	0.02377636
306.00	0.02392737
307.00	0.02365910
308.00	0.02428501
309.00	0.02391592
310.00	0.02390889
311.00	0.02429265
312.00	0.02452661
313.00	0.02299216
314.00	0.02332239
315.00	0.02465319
316.00	0.02427079
317.00	0.02282960
318.00	0.02297916
319.00	0.02353256
320.00	0.02263435
321.00	0.02347590
322.00	0.02316149
323.00	0.02321503
324.00	0.02351199
325.00	0.02322122
326.00	0.02395139
327.00	0.02304778
328.00	0.02190566
329.00	0.02194940
330.00	0.02186113
331.00	0.02186827
332.00	0.02315977
333.00	0.02197282
334.00	0.02156857
335.00	0.02157247
336.00	0.02113488
337.00	0.02210793
338.00	0.02149590
339.00	0.02193013
340.00	0.02072515
341.00	0.02111449
342.00	0.02056385
343.00	0.02073954
344.00	0.02154691
345.00	0.02137915
346.00	0.02061642
347.00	0.02150119
348.00	0.02078889
349.00	0.02061704
350.00	0.02184437
351.00	0.02037244
352.00	0.02025869
353.00	0.02101231
354.00	0.02063619
355.00	0.02262657
356.00	0.02282974
357.00	0.02360259
358.00	0.02251154
359.00	0.02212156
360.00	0.02416793
361.00	0.02411994
362.00	0.02266382
363.00	0.02420415
364.00	0.02359122
365.00	0.02276220
366.00	0.02245675
367.00	0.02379621
368.00	0.02359122
369.00	0.02249789
370.00	0.02300456
371.00	0.02303307
372.00	0.02197564
373.00	0.02283173
374.00	0.02288083
375.00	0.02362684
376.00	0.02462300
377.00	0.02476588
378.00	0.02519525
379.00	0.02498644
380.00	0.02459084
381.00	0.02381822
382.00	0.02422097
383.00	0.02537843
384.00	0.02647197
385.00	0.02617981
386.00	0.02621757
387.00	0.02626308
388.00	0.02582124
389.00	0.02692248
390.00	0.02744377
391.00	0.02734982
392.00	0.02702089
393.00	0.02813614
394.00	0.02680987
395.00	0.02786201
396.00	0.02775536
397.00	0.02686460
398.00	0.02792080
399.00	0.02813325
400.00	0.02802890
401.00	0.02805756
402.00	0.02833030
403.00	0.02853821
404.00	0.02901042
405.00	0.02869156
406.00	0.02944847
407.00	0.02885176
408.00	0.02858803
409.00	0.02910009
410.00	0.02884659
411.00	0.02929720
412.00	0.02879939
413.00	0.02785212
414.00	0.02820420
415.00	0.02870911
416.00	0.02912656
417.00	0.02806728
418.00	0.02923630
419.00	0.02756428
420.00	0.02949663
421.00	0.02935125
422.00	0.02834555
423.00	0.02818918
424.00	0.02805293
425.00	0.02929425
426.00	0.02584033
427.00	0.02713155
428.00	0.02671814
429.00	0.02758222
430.00	0.02581695
431.00	0.02610584
432.00	0.02550270
433.00	0.02294587
434.00	0.02562486
435.00	0.02364706
436.00	0.02224385
437.00	0.02490885
438.00	0.02226858
439.00	0.02266829
440.00	0.02263439
441.00	0.02332955
442.00	0.02371414
443.00	0.02277264
444.00	0.02198470
445.00	0.02134556
446.00	0.02154753
447.00	0.02302339
448.00	0.02042112
449.00	0.02313846
450.00	0.01853879
451.00	0.02106486
452.00	0.02003067
453.00	0.02152414
454.00	0.02057500
455.00	0.02065843
456.00	0.01949696
457.00	0.01979666
458.00	0.01997744
459.00	0.02132398
460.00	0.02195759
461.00	0.02084284
462.00	0.01998324
463.00	0.02056673
464.00	0.02010565
465.00	0.01988590
466.00	0.02002425
467.00	0.02022457
468.00	0.01997422
469.00	0.01929119
470.00	0.01979697
471.00	0.02069835
472.00	0.01999982
473.00	0.02043116
474.00	0.01923483
475.00	0.02046294
476.00	0.02068914
477.00	0.02056326
478.00	0.02045193
479.00	0.02176176
480.00	0.02013040
481.00	0.02059029
482.00	0.02133474
483.00	0.02195529
484.00	0.02357198
485.00	0.02100093
486.00	0.02166639
487.00	0.02094575
488.00	0.02335060
489.00	0.02309540
490.00	0.02220312
491.00	0.02190608
492.00	0.02215012
493.00	0.02235823
494.00	0.02154642
495.00	0.02146669
496.00	0.02144897
497.00	0.02142948
498.00	0.02223514
499.00	0.02143741
500.00	0.02152462
501.00	0.02249171
502.00	0.02153674
503.00	0.02068331
504.00	0.02199279
505.00	0.02250163
506.00	0.02241795
507.00	0.02244457
508.00	0.02259756
509.00	0.02154614
510.00	0.02216626
511.00	0.02444815
512.00	0.02386565
513.00	0.02305022
514.00	0.02383121
515.00	0.02355488
516.00	0.02431329
517.00	0.02379841
518.00	0.02562591
519.00	0.02453916
520.00	0.02596023
521.00	0.02555685
522.00	0.02486018
523.00	0.02491745
524.00	0.02582957
525.00	0.02643352
526.00	0.02670510
527.00	0.02697769
528.00	0.02654843
529.00	0.02822832
530.00	0.02744934
531.00	0.02562197
532.00	0.02745880
533.00	0.02824274
534.00	0.02803724
535.00	0.02768278
536.00	0.02767508
537.00	0.02793772
538.00	0.02901708
539.00	0.02840285
540.00	0.02871853
541.00	0.02923031
542.00	0.02993943
543.00	0.02946251
544.00	0.02828705
545.00	0.02965716
546.00	0.02930177
547.00	0.02939830
548.00	0.02911759
549.00	0.02783177
550.00	0.02786275
551.00	0.02817701
552.00	0.02914551
553.00	0.02982134
554.00	0.02938820
555.00	0.02919704
556.00	0.02917503
557.00	0.02822768
558.00	0.02955777
559.00	0.02904440
560.00	0.02905247
561.00	0.03050316
562.00	0.02968742
563.00	0.02966301
564.00	0.03054809
565.00	0.03031197
566.00	0.03151570
567.00	0.03133250
568.00	0.03118733
569.00	0.03149735
570.00	0.03249114
571.00	0.03173789
572.00	0.03218245
573.00	0.03220304
574.00	0.03297812
575.00	0.03322810
576.00	0.03322875
577.00	0.03206354
578.00	0.03310619
579.00	0.03277365
580.00	0.03339410
581.00	0.03172250
582.00	0.03158703
583.00	0.03197272
584.00	0.03299606
585.00	0.03348518
586.00	0.03327110
587.00	0.03361411
588.00	0.03359338
589.00	0.03392665
590.00	0.03442327
591.00	0.03397671
592.00	0.03491037
593.00	0.03504365
594.00	0.03557708
595.00	0.03593617
596.00	0.03543321
597.00	0.03746648
598.00	0.03630035
599.00	0.03652958
600.00	0.03584753
601.00	0.03581061
602.00	0.03718513
603.00	0.03746056
604.00	0.03623605
605.00	0.03748082
606.00	0.03808761
607.00	0.03787237
608.00	0.03757634
609.00	0.03774921
610.00	0.03879402
611.00	0.03763433
612.00	0.03761427
613.00	0.03688604
614.00	0.03722286
615.00	0.03745269
616.00	0.03653953
617.00	0.03733640
618.00	0.03678765
619.00	0.03730975
620.00	0.03696829
621.00	0.03732593
622.00	0.03704918
623.00	0.03826636
624.00	0.03769359
625.00	0.03836618
626.00	0.03849230
627.00	0.03815583
628.00	0.03779786
629.00	0.03910604
630.00	0.03811416
631.00	0.03820391
632.00	0.03811025
633.00	0.03743474
634.00	0.03871324
635.00	0.03961399
636.00	0.03738573
637.00	0.03776367
638.00	0.03843698
639.00	0.03846641
640.00	0.03806478
641.00	0.03810121
642.00	0.03841243
643.00	0.03781189
644.00	0.03860237
645.00	0.03839484
646.00	0.03798066
647.00	0.03848578
648.00	0.03753942
649.00	0.03715813
650.00	0.03847535
651.00	0.03866774
652.00	0.03910093
653.00	0.03782714
654.00	0.03968906
655.00	0.03863920
656.00	0.03861660
657.00	0.03912903
658.00	0.04026673
659.00	0.03953639
660.00	0.04084768
661.00	0.04043591
662.00	0.03900482
663.00	0.03815489
664.00	0.03634307
665.00	0.03838279
666.00	0.03949611
667.00	0.03873504
668.00	0.03753313
669.00	0.03864043
670.00	0.03898583
671.00	0.03822978
672.00	0.03751156
673.00	0.03657103
674.00	0.03642241
675.00	0.03559304
676.00	0.03659684
677.00	0.03686353
678.00	0.03629973
679.00	0.03517225
680.00	0.03658300
681.00	0.03541315
682.00	0.03397968
683.00	0.03268487
684.00	0.03329596
685.00	0.03163724
686.00	0.03113379
687.00	0.03069297
688.00	0.03055662
689.00	0.02966628
690.00	0.02872819
691.00	0.02925505
692.00	0.02948624
693.00	0.02857200
694.00	0.02668392
695.00	0.02879953
696.00	0.02765245
697.00	0.02730540
698.00	0.02787925
699.00	0.02786921
700.00	0.02585099
701.00	0.02603797
702.00	0.02612678
703.00	0.02528023
704.00	0.02433807
705.00	0.02444500
706.00	0.02383772
707.00	0.02307590
708.00	0.02149078
709.00	0.02257997
710.00	0.02217341
711.00	0.02179350
712.00	0.01942866
713.00	0.01928973
714.00	0.02049934
715.00	0.01936941
716.00	0.02172052
717.00	0.01957560
718.00	0.02054162
719.00	0.02067851
720.00	0.01841097
721.00	0.01897726
722.00	0.01953705
723.00	0.01929798
724.00	0.01871749
725.00	0.01928090
726.00	0.01902005
727.00	0.02024717
728.00	0.01936203
729.00	0.01880738
730.00	0.01577862
731.00	0.01891988
732.00	0.01805125
733.00	0.01691819
734.00	0.01886056
735.00	0.01819410
736.00	0.01769681
737.00	0.01838438
738.00	0.01642786
739.00	0.01616576
740.00	0.01761519
741.00	0.01748827
742.00	0.01672421
743.00	0.01857613
744.00	0.01649060
745.00	0.01670813
746.00	0.01680342
747.00	0.01820536
748.00	0.01715014
749.00	0.01778344
750.00	0.01747499
751.00	0.01671422
752.00	0.01731203
753.00	0.01839164
754.00	0.01737562
755.00	0.01765174
756.00	0.01783167
757.00	0.01648385
758.00	0.01676329
759.00	0.01656157
760.00	0.01762993
761.00	0.01716334
762.00	0.01727265
763.00	0.01665910
764.00	0.01481747
765.00	0.01455339
766.00	0.01609554
767.00	0.01670245
768.00	0.01784040
769.00	0.01767924
770.00	0.01687847
771.00	0.01780422
772.00	0.01905539
773.00	0.01840308
774.00	0.01877150
775.00	0.01620459
776.00	0.01680631
777.00	0.01776277
778.00	0.01935354
779.00	0.01909119
780.00	0.01811830
781.00	0.01866613
782.00	0.01767106
783.00	0.01832562
784.00	0.01917530
785.00	0.01824417
786.00	0.01649731
787.00	0.01749975
788.00	0.01808745
789.00	0.01696907
790.00	0.01685146
791.00	0.01841325
792.00	0.01644782
793.00	0.01771103
794.00	0.01763962
795.00	0.01759822
796.00	0.01798522
797.00	0.01544642
798.00	0.01795231
799.00	0.01790797
800.00	0.01854612
801.00	0.01735089
802.00	0.01878381
803.00	0.02033653
804.00	0.01775086
805.00	0.01791456
806.00	0.01854705
807.00	0.01796073
808.00	0.01626650
809.00	0.01769070
810.00	0.01889063
811.00	0.01841425
812.00	0.01941930
813.00	0.01773743
814.00	0.01812949
815.00	0.01820274
816.00	0.01933802
817.00	0.01904698
818.00	0.01648853
819.00	0.01745070
820.00	0.01688574
821.00	0.01522818
822.00	0.01335153
823.00	0.01210133
824.00	0.01173512
825.00	0.01360041
826.00	0.01467563
827.00	0.01402144
828.00	0.01321324
829.00	0.01381578
830.00	0.01578007
831.00	0.01714379
832.00	0.01656422
833.00	0.01577213
834.00	0.01430036
835.00	0.01400330
836.00	0.01507255
837.00	0.01618196
838.00	0.01674246
839.00	0.01841836
840.00	0.01771372
841.00	0.01584728
842.00	0.01586202
843.00	0.01908323
844.00	0.01779735
845.00	0.01745101
846.00	0.01941816
847.00	0.01931020
848.00	0.01760401
849.00	0.01848039
850.00	0.01787648
851.00	0.01922371
852.00	0.01981594
853.00	0.01999541
854.00	0.01893126
855.00	0.01669132
856.00	0.01912755
857.00	0.01904958
858.00	0.01852257
859.00	0.01930972
860.00	0.01769915
861.00	0.01717078
862.00	0.01906388
863.00	0.01892348
864.00	0.01823847
865.00	0.01928239
866.00	0.01837087
867.00	0.02011770
868.00	0.01774958
869.00	0.01769267
870.00	0.01732641
871.00	0.01640085
872.00	0.01778838
873.00	0.01662704
874.00	0.01736941
875.00	0.01693938
876.00	0.01771641
877.00	0.01666436
878.00	0.01610527
879.00	0.01754781
880.00	0.01495192
881.00	0.01232833
882.00	0.01140556
883.00	0.01196159
884.00	0.01338874
885.00	0.01457258
886.00	0.01485985
887.00	0.01606236
888.00	0.01517650
889.00	0.01593781
890.00	0.01688360
891.00	0.01659682
892.00	0.01530554
893.00	0.01494976
894.00	0.01525629
895.00	0.01387869
896.00	0.01277972
897.00	0.01391701
898.00	0.01656876
899.00	0.01518388
900.00	0.01452324
