idtbt_ps_100 Cycle01			idtbt_ps_80 Cycle01						idtbt_ps_60 Cycle01		
nm	A		nm	A					nm	A	
300	0.01500264		300	-0.01304901	0.01127193	0.022010318			300	0.02237822	0.0234426
301	0.0176634		301	-0.011831	0.01248994	0.024388685			301	0.02402478	0.02508916
302	0.01757058		302	-0.01082684	0.0134941	0.026349475			302	0.02496514	0.02602952
303	0.01668385		303	-0.01132804	0.0129929	0.025370798			303	0.02442772	0.0254921
304	0.01629526		304	-0.01141348	0.01290746	0.025203962			304	0.0241866	0.02525098
305	0.01663868		305	-0.01078509	0.01353585	0.026430998			305	0.02377636	0.02484074
306	0.01779518		306	-0.01054374	0.0137772	0.026902274			306	0.02392737	0.02499175
307	0.01690503		307	-0.0104404	0.01388054	0.027104063			307	0.0236591	0.02472348
308	0.01762575		308	-0.01009988	0.01422106	0.027768985			308	0.02428501	0.02534939
309	0.01855172		309	-0.0103582	0.01396274	0.027264572			309	0.02391592	0.0249803
310	0.0191066		310	-0.01003073	0.01429021	0.027904012			310	0.02390889	0.02497327
311	0.0180145		311	-0.0103008	0.01402014	0.027376655			311	0.02429265	0.02535703
312	0.01825737		312	-0.01039233	0.01392861	0.027197928			312	0.02452661	0.02559099
313	0.01895245		313	-0.00988122	0.01443972	0.028195955			313	0.02299216	0.02405654
314	0.01848498		314	-0.00997481	0.01434613	0.028013205			314	0.02332239	0.02438677
315	0.01976735		315	-0.01010166	0.01421928	0.027765509			315	0.02465319	0.02571757
316	0.01857513		316	-0.00988598	0.01443496	0.02818666			316	0.02427079	0.02533517
317	0.01840094		317	-0.00952295	0.01479799	0.028895537			317	0.0228296	0.02389398
318	0.01790939		318	-0.00990441	0.01441653	0.028150673			318	0.02297916	0.02404354
319	0.01989748		319	-0.0091855	0.01513544	0.029554464			319	0.02353256	0.02459694
320	0.01832141		320	-0.00999589	0.01432505	0.027972043			320	0.02263435	0.02369873
321	0.01849245		321	-0.00959714	0.0147238	0.028750668			321	0.0234759	0.02454028
322	0.01758017		322	-0.00956016	0.01476078	0.028822878			322	0.02316149	0.02422587
323	0.01877568		323	-0.00976771	0.01455323	0.028417602			323	0.02321503	0.02427941
324	0.02024668		324	-0.00980166	0.01451928	0.028351309			324	0.02351199	0.02457637
325	0.02101676		325	-0.00922693	0.01509401	0.029473565			325	0.02322122	0.0242856
326	0.01945277		326	-0.00948515	0.01483579	0.028969347			326	0.02395139	0.02501577
327	0.01867612		327	-0.01001826	0.01430268	0.027928361			327	0.02304778	0.02411216
328	0.01843458		328	-0.0098875	0.01443344	0.028183692			328	0.02190566	0.02297004
329	0.01732651		329	-0.01028958	0.01403136	0.027398564			329	0.0219494	0.02301378
330	0.01806127		330	-0.00968674	0.0146342	0.028575709			330	0.02186113	0.02292551
331	0.01762265		331	-0.00973668	0.01458426	0.028478193			331	0.02186827	0.02293265
332	0.01800242		332	-0.00925583	0.01506511	0.029417133			332	0.02315977	0.02422415
333	0.01745129		333	-0.00993284	0.0143881	0.028095158			333	0.02197282	0.0230372
334	0.01845425		334	-0.00954599	0.01477495	0.028850547			334	0.02156857	0.02263295
335	0.01773053		335	-0.00976302	0.01455792	0.02842676			335	0.02157247	0.02263685
336	0.01717909		336	-0.00991186	0.01440908	0.028136125			336	0.02113488	0.02219926
337	0.01830582		337	-0.00984141	0.01447953	0.02827369			337	0.02210793	0.02317231
338	0.01774768		338	-0.00888954	0.0154314	0.030132375			338	0.0214959	0.02256028
339	0.01721167		339	-0.00978106	0.01453988	0.028391534			339	0.02193013	0.02299451
340	0.0168453		340	-0.00993527	0.01438567	0.028090413			340	0.02072515	0.02178953
341	0.01722242		341	-0.00954687	0.01477407	0.028848829			341	0.02111449	0.02217887
342	0.0173901		342	-0.01002866	0.01429228	0.027908054			342	0.02056385	0.02162823
343	0.01810127		343	-0.00946268	0.01485826	0.029013224			343	0.02073954	0.02180392
344	0.01766423		344	-0.00900376	0.01531718	0.029909341			344	0.02154691	0.02261129
345	0.01864942		345	-0.00962129	0.01469965	0.028703511			345	0.02137915	0.02244353
346	0.01891818		346	-0.01007418	0.01424676	0.027819168			346	0.02061642	0.0216808
347	0.01794854		347	-0.01018087	0.01414007	0.027610838			347	0.02150119	0.02256557
348	0.01773301		348	-0.00988919	0.01443175	0.028180392			348	0.02078889	0.02185327
349	0.01734503		349	-0.00808714	0.0162338	0.031699194			349	0.02061704	0.02168142
350	0.01873247		350	-0.00863568	0.01568526	0.030628079			350	0.02184437	0.02290875
351	0.01792972		351	-0.00961257	0.01470837	0.028720539			351	0.02037244	0.02143682
352	0.01682436		352	-0.00963519	0.01468575	0.028676369			352	0.02025869	0.02132307
353	0.019814		353	-0.00907049	0.01525045	0.02977904			353	0.02101231	0.02207669
354	0.01857385		354	-0.00909265	0.01522829	0.029735769			354	0.02063619	0.02170057
355	0.01902905		355	-0.00884945	0.01547149	0.030210657			355	0.02262657	0.02369095
356	0.02011832		356	-0.00842973	0.01589121	0.03103023			356	0.02282974	0.02389412
357	0.02126319		357	-0.00831431	0.01600663	0.031255607			357	0.02360259	0.02466697
358	0.02153308		358	-0.00797157	0.01634937	0.031924864			358	0.02251154	0.02357592
359	0.02156895		359	-0.00859	0.01573094	0.030717277			359	0.02212156	0.02318594
360	0.0214088		360	-0.00772019	0.01660075	0.032415725			360	0.02416793	0.02523231
361	0.02394754		361	-0.00800953	0.01631141	0.031850741			361	0.02411994	0.02518432
362	0.02412859		362	-0.00831132	0.01600962	0.031261446			362	0.02266382	0.0237282
363	0.0246035		363	-0.00709647	0.01722447	0.033633642			363	0.02420415	0.02526853
364	0.02288443		364	-0.00688248	0.01743846	0.034051493			364	0.02359122	0.0246556
365	0.02225474		365	-0.00755702	0.01676392	0.032734342			365	0.0227622	0.02382658
366	0.02268106		366	-0.00692524	0.0173957	0.033967997			366	0.02245675	0.02352113
367	0.02336854		367	-0.00619279	0.01812815	0.035398228			367	0.02379621	0.02486059
368	0.02379988		368	-0.00563546	0.01868548	0.036486507			368	0.02359122	0.0246556
369	0.02279803		369	-0.00651181	0.01780913	0.034775288			369	0.02249789	0.02356227
370	0.0236162		370	-0.00625762	0.01806332	0.035271636			370	0.02300456	0.02406894
371	0.02448195		371	-0.00566496	0.01865598	0.036428904			371	0.02303307	0.02409745
372	0.02400192		372	-0.00577081	0.01855013	0.036222214			372	0.02197564	0.02304002
373	0.02520227		373	-0.00514452	0.01917642	0.037445149			373	0.02283173	0.02389611
374	0.02551742		374	-0.00487842	0.01944252	0.037964754			374	0.02288083	0.02394521
375	0.02705195		375	-0.00464043	0.01968051	0.038429469			375	0.02362684	0.02469122
376	0.02799815		376	-0.00434306	0.01997788	0.039010133			376	0.024623	0.02568738
377	0.0290867		377	-0.00403557	0.02028537	0.039610559			377	0.02476588	0.02583026
378	0.03028564		378	-0.00392122	0.02039972	0.039833846			378	0.02519525	0.02625963
379	0.02895729		379	-0.003845	0.02047594	0.039982678			379	0.02498644	0.02605082
380	0.02987734		380	-0.00383344	0.0204875	0.040005251			380	0.02459084	0.02565522
381	0.03066879		381	-0.00333779	0.02098315	0.04097309			381	0.02381822	0.0248826
382	0.03105556		382	-0.00318069	0.02114025	0.041279854			382	0.02422097	0.02528535
383	0.03227088		383	-0.00296391	0.02135703	0.041703153			383	0.02537843	0.02644281
384	0.03410435		384	-0.00184552	0.02247542	0.043886996			384	0.02647197	0.02753635
385	0.03413987		385	-0.00236291	0.02195803	0.042876706			385	0.02617981	0.02724419
386	0.03452791		386	-0.00163091	0.02269003	0.044306057			386	0.02621757	0.02728195
387	0.03481117		387	-0.00195798	0.02236296	0.043667399			387	0.02626308	0.02732746
388	0.03606328		388	-0.00154075	0.02278019	0.04448211			388	0.02582124	0.02688562
389	0.0361691		389	-0.00143865	0.02288229	0.044681477			389	0.02692248	0.02798686
390	0.03740252		390	-0.00128522	0.02303572	0.044981074			390	0.02744377	0.02850815
391	0.03855631		391	-0.00107896	0.02324198	0.045383831			391	0.02734982	0.0284142
392	0.03994582		392	-0.00102617	0.02329477	0.045486913			392	0.02702089	0.02808527
393	0.03936368		393	-0.00091198	0.02340896	0.045709888			393	0.02813614	0.02920052
394	0.04102404		394	-0.00045757	0.02386337	0.046597199			394	0.02680987	0.02787425
395	0.04163416		395	-0.00052185	0.02379909	0.046471681			395	0.02786201	0.02892639
396	0.04053805		396	-0.0003142	0.02400674	0.046877153			396	0.02775536	0.02881974
397	0.04206243		397	-0.00008793	0.02423301	0.047318982			397	0.0268646	0.02792898
398	0.04281487		398	0.00026091	0.02458185	0.04800015			398	0.0279208	0.02898518
399	0.04258087		399	0.00003993	0.02436087	0.04756865			399	0.02813325	0.02919763
400	0.04378208		400	0.0003002	0.02462114	0.048076871			400	0.0280289	0.02909328
401	0.04425881		401	0.0005595	0.02488044	0.048583197			401	0.02805756	0.02912194
402	0.04485009		402	0.00061461	0.02493555	0.048690809			402	0.0283303	0.02939468
403	0.04448833		403	0.00052708	0.02484802	0.048519892			403	0.02853821	0.02960259
404	0.04630761		404	0.0007361	0.02505704	0.048928038			404	0.02901042	0.0300748
405	0.04700756		405	0.0008471	0.02516804	0.049144784			405	0.02869156	0.02975594
406	0.04694756		406	0.00088844	0.02520938	0.049225507			406	0.02944847	0.03051285
407	0.04659914		407	0.000831	0.02515194	0.049113346			407	0.02885176	0.02991614
408	0.04710737		408	0.00065811	0.02497905	0.04877575			408	0.02858803	0.02965241
409	0.0476423		409	0.00110417	0.02542511	0.049646756			409	0.02910009	0.03016447
410	0.04744379		410	0.0007141	0.02503504	0.048885079			410	0.02884659	0.02991097
411	0.04739585		411	0.00062141	0.02494235	0.048704087			411	0.0292972	0.03036158
412	0.04802794		412	0.00074582	0.02506676	0.048947018			412	0.02879939	0.02986377
413	0.04806029		413	0.00083266	0.0251536	0.049116587			413	0.02785212	0.0289165
414	0.04875596		414	0.00069295	0.02501389	0.04884378			414	0.0282042	0.02926858
415	0.04824972		415	0.00078164	0.02510258	0.049016962			415	0.02870911	0.02977349
416	0.04923859		416	0.00089514	0.02521608	0.04923859			416	0.02912656	0.03019094
417	0.04760218		417	0.00036914	0.02469008	0.048211488			417	0.02806728	0.02913166
418	0.04882083		418	0.00002518	0.02434612	0.047539848			418	0.0292363	0.03030068
419	0.04890441		419	-0.00017243	0.02414851	0.047153982			419	0.02756428	0.02862866
420	0.048552		420	-0.00023678	0.02408416	0.047028328			420	0.02949663	0.03056101
421	0.04980439		421	-0.00006017	0.02426077	0.047373188			421	0.02935125	0.03041563
422	0.04884912		422	-0.00051824	0.0238027	0.04647873			422	0.02834555	0.02940993
423	0.04865777		423	-0.00063637	0.02368457	0.046248062			423	0.02818918	0.02925356
424	0.04922025		424	-0.00106068	0.02326026	0.045419526			424	0.02805293	0.02911731
425	0.04764367		425	-0.00047875	0.02384219	0.046555841			425	0.02929425	0.03035863
426	0.04615233		426	-0.00158228	0.02273866	0.044401015			426	0.02584033	0.02690471
427	0.04680066		427	-0.00163054	0.0226904	0.04430678			427	0.02713155	0.02819593
428	0.04436328		428	-0.00125238	0.02306856	0.0450452			428	0.02671814	0.02778252
429	0.04394241		429	-0.00170563	0.02261531	0.044160154			429	0.02758222	0.0286466
430	0.04285034		430	-0.00247405	0.02184689	0.042659686			430	0.02581695	0.02688133
431	0.0420894		431	-0.00180074	0.0225202	0.043974436			431	0.02610584	0.02717022
432	0.04083057		432	-0.00285549	0.02146545	0.041914861			432	0.0255027	0.02656708
433	0.03973979		433	-0.00353427	0.02078667	0.04058943			433	0.02294587	0.02401025
434	0.03757106		434	-0.00330438	0.02101656	0.041038329			434	0.02562486	0.02668924
435	0.03627293		435	-0.0033874	0.02093354	0.040876218			435	0.02364706	0.02471144
436	0.03346514		436	-0.00402008	0.02030086	0.039640805			436	0.02224385	0.02330823
437	0.03450025		437	-0.00278281	0.02153813	0.042056781			437	0.02490885	0.02597323
438	0.03214677		438	-0.00408363	0.02023731	0.039516714			438	0.02226858	0.02333296
439	0.03180199		439	-0.0043155	0.02000544	0.039063949			439	0.02266829	0.02373267
440	0.0312056		440	-0.0044064	0.01991454	0.038886451			440	0.02263439	0.02369877
441	0.03156683		441	-0.00431006	0.02001088	0.039074571			441	0.02332955	0.02439393
442	0.0286093		442	-0.00331648	0.02100446	0.041014701			442	0.02371414	0.02477852
443	0.02884188		443	-0.00564014	0.0186808	0.036477369			443	0.02277264	0.02383702
444	0.02528876		444	-0.00497104	0.0193499	0.037783898			444	0.0219847	0.02304908
445	0.02753918		445	-0.00505665	0.01926429	0.03761673			445	0.02134556	0.02240994
446	0.02598		446	-0.00502227	0.01929867	0.037683863			446	0.02154753	0.02261191
447	0.02592822		447	-0.00588174	0.0184392	0.036005605			447	0.02302339	0.02408777
448	0.02458257		448	-0.0066354	0.01768554	0.034533958			448	0.02042112	0.0214855
449	0.02225006		449	-0.0043778	0.01994314	0.038942298			449	0.02313846	0.02420284
450	0.02487987		450	-0.00501896	0.01930198	0.037690326			450	0.01853879	0.01960317
451	0.0234297		451	-0.00631641	0.01800453	0.035156839			451	0.02106486	0.02212924
452	0.02154001		452	-0.00587259	0.01844835	0.036023472			452	0.02003067	0.02109505
453	0.02292446		453	-0.00541202	0.01890892	0.036922811			453	0.02152414	0.02258852
454	0.02231985		454	-0.00524562	0.01907532	0.037247735			454	0.020575	0.02163938
455	0.02064866		455	-0.00601519	0.01830575	0.035745021			455	0.02065843	0.02172281
456	0.02150683		456	-0.0063008	0.01802014	0.03518732			456	0.01949696	0.02056134
457	0.02047145		457	-0.00559585	0.01872509	0.036563852			457	0.01979666	0.02086104
458	0.02167569		458	-0.00563226	0.01868868	0.036492756			458	0.01997744	0.02104182
459	0.02006918		459	-0.00592152	0.01839942	0.035927928			459	0.02132398	0.02238836
460	0.02186872		460	-0.0051599	0.01916104	0.037415117			460	0.02195759	0.02302197
461	0.02187879		461	-0.00551292	0.01880802	0.036725787			461	0.02084284	0.02190722
462	0.02012537		462	-0.00601362	0.01830732	0.035748087			462	0.01998324	0.02104762
463	0.02087326		463	-0.00541375	0.01890719	0.036919433			463	0.02056673	0.02163111
464	0.02152912		464	-0.00562663	0.01869431	0.036503749			464	0.02010565	0.02117003
465	0.02170735		465	-0.00502174	0.0192992	0.037684898			465	0.0198859	0.02095028
466	0.02109025		466	-0.0052246	0.01909634	0.03728878			466	0.02002425	0.02108863
467	0.02057639		467	-0.00490922	0.01941172	0.037904612			467	0.02022457	0.02128895
468	0.01997966		468	-0.00527721	0.01904373	0.03718605			468	0.01997422	0.0210386
469	0.0208784		469	-0.0047128	0.01960814	0.038288154			469	0.01929119	0.02035557
470	0.01983571		470	-0.00479028	0.01953066	0.038136862			470	0.01979697	0.02086135
471	0.02139585		471	-0.00503268	0.01928826	0.037663536			471	0.02069835	0.02176273
472	0.02154928		472	-0.0045343	0.01978664	0.038636705			472	0.01999982	0.0210642
473	0.02103164		473	-0.00449029	0.01983065	0.038722642			473	0.02043116	0.02149554
474	0.0189512		474	-0.00443506	0.01988588	0.038830488			474	0.01923483	0.02029921
475	0.021281		475	-0.00442424	0.0198967	0.038851616			475	0.02046294	0.02152732
476	0.02138019		476	-0.00416302	0.02015792	0.039361691			476	0.02068914	0.02175352
477	0.02146119		477	-0.00433387	0.01998707	0.039028078			477	0.02056326	0.02162764
478	0.02140717		478	-0.00407355	0.02024739	0.039536396			478	0.02045193	0.02151631
479	0.02218963		479	-0.00388516	0.02043578	0.039904259			479	0.02176176	0.02282614
480	0.02186151		480	-0.00438557	0.01993537	0.038927125			480	0.0201304	0.02119478
481	0.02193131		481	-0.00324505	0.02107589	0.04115418			481	0.02059029	0.02165467
482	0.0219891		482	-0.0043878	0.01993314	0.038922771			482	0.02133474	0.02239912
483	0.02297434		483	-0.00369758	0.02062336	0.04027054			483	0.02195529	0.02301967
484	0.02444693		484	-0.00319615	0.02112479	0.041249666			484	0.02357198	0.02463636
485	0.02376702		485	-0.00327074	0.0210502	0.041104016			485	0.02100093	0.02206531
486	0.02391361		486	-0.00367172	0.02064922	0.040321036			486	0.02166639	0.02273077
487	0.02443182		487	-0.00328767	0.02103327	0.041070958			487	0.02094575	0.02201013
488	0.02494998		488	-0.00300876	0.02131218	0.041615576			488	0.0233506	0.02441498
489	0.02298548		489	-0.00341459	0.02090635	0.040823125			489	0.0230954	0.02415978
490	0.02370077		490	-0.00286942	0.02145152	0.04188766			490	0.02220312	0.0232675
491	0.02295079		491	-0.00251441	0.02180653	0.042580877			491	0.02190608	0.02297046
492	0.02523517		492	-0.00245359	0.02186735	0.042699638			492	0.02215012	0.0232145
493	0.02442814		493	-0.00254142	0.02177952	0.042528135			493	0.02235823	0.02342261
494	0.02332704		494	-0.00285898	0.02146196	0.041908046			494	0.02154642	0.0226108
495	0.02419735		495	-0.00243985	0.02188109	0.042726467			495	0.02146669	0.02253107
496	0.02454256		496	-0.00237972	0.02194122	0.042843881			496	0.02144897	0.02251335
497	0.02565262		497	-0.0015732	0.02274774	0.044418746			497	0.02142948	0.02249386
498	0.02507128		498	-0.00188346	0.02243748	0.043812911			498	0.02223514	0.02329952
499	0.02545045		499	-0.00180787	0.02251307	0.043960513			499	0.02143741	0.02250179
500	0.02439414		500	-0.00152473	0.02279621	0.044513391			500	0.02152462	0.022589
501	0.02454744		501	-0.00147174	0.0228492	0.044616863			501	0.02249171	0.02355609
502	0.0251635		502	-0.00149148	0.02282946	0.044578318			502	0.02153674	0.02260112
503	0.02589526		503	-0.00101229	0.02330865	0.045514016			503	0.02068331	0.02174769
504	0.02548864		504	-0.00098284	0.0233381	0.045571522			504	0.02199279	0.02305717
505	0.02531229		505	-0.00073317	0.02358777	0.046059044			505	0.02250163	0.02356601
506	0.02533677		506	-0.00062459	0.02369635	0.046271064			506	0.02241795	0.02348233
507	0.02630054		507	-0.00057979	0.02374115	0.046358544			507	0.02244457	0.02350895
508	0.02655358		508	-0.0006406	0.02368034	0.046239802			508	0.02259756	0.02366194
509	0.02697801		509	-0.00049739	0.02382355	0.046519444			509	0.02154614	0.02261052
510	0.02617362		510	-0.00014656	0.02417438	0.047204498			510	0.02216626	0.02323064
511	0.02806043		511	-0.0001822	0.02413874	0.047134904			511	0.02444815	0.02551253
512	0.02718534		512	-0.00008488	0.02423606	0.047324938			512	0.02386565	0.02493003
513	0.02757096		513	0.00001282	0.02433376	0.047515713			513	0.02305022	0.0241146
514	0.02691321		514	0.00047739	0.02479833	0.048422864			514	0.02383121	0.02489559
515	0.0286705		515	0.0007677	0.02508864	0.048989742			515	0.02355488	0.02461926
516	0.02847519		516	0.00079568	0.02511662	0.049044378			516	0.02431329	0.02537767
517	0.02903518		517	0.00080036	0.0251213	0.049053516			517	0.02379841	0.02486279
518	0.0299658		518	0.00114476	0.0254657	0.049726015			518	0.02562591	0.02669029
519	0.03012054		519	0.0008479	0.02516884	0.049146346			519	0.02453916	0.02560354
520	0.02963006		520	0.00149184	0.02581278	0.050403746			520	0.02596023	0.02702461
521	0.02906314		521	0.0008554	0.02517634	0.049160991			521	0.02555685	0.02662123
522	0.02996016		522	0.00156702	0.02588796	0.050550547			522	0.02486018	0.02592456
523	0.03080276		523	0.00196238	0.02628332	0.051322554			523	0.02491745	0.02598183
524	0.03138026		524	0.00196342	0.02628436	0.051324584			524	0.02582957	0.02689395
525	0.03091607		525	0.00130263	0.02562357	0.050034282			525	0.02643352	0.0274979
526	0.03180149		526	0.0012257	0.02554664	0.049884063			526	0.0267051	0.02776948
527	0.03397069		527	0.00259841	0.02691935	0.052564508			527	0.02697769	0.02804207
528	0.03336769		528	0.00275307	0.02707401	0.052866507			528	0.02654843	0.02761281
529	0.03389205		529	0.00265988	0.02698082	0.052684538			529	0.02822832	0.0292927
530	0.03241534		530	0.0024607	0.02678164	0.052295606			530	0.02744934	0.02851372
531	0.03381564		531	0.00292559	0.02724653	0.053203381			531	0.02562197	0.02668635
532	0.03293054		532	0.00331392	0.02763486	0.05396166			532	0.0274588	0.02852318
533	0.035081		533	0.00306409	0.02738503	0.053473826			533	0.02824274	0.02930712
534	0.03525048		534	0.0039188	0.02823974	0.055142789			534	0.02803724	0.02910162
535	0.03482083		535	0.00360008	0.02792102	0.054520435			535	0.02768278	0.02874716
536	0.03626724		536	0.00488066	0.0292016	0.057020981			536	0.02767508	0.02873946
537	0.03523765		537	0.00369571	0.02801665	0.054707169			537	0.02793772	0.0290021
538	0.03589186		538	0.00404386	0.0283648	0.055386989			538	0.02901708	0.03008146
539	0.03488535		539	0.00484944	0.02917038	0.056960018			539	0.02840285	0.02946723
540	0.03470952		540	0.00435383	0.02867477	0.055992257			540	0.02871853	0.02978291
541	0.03673965		541	0.00463475	0.02895569	0.0565408			541	0.02923031	0.03029469
542	0.03734315		542	0.00470371	0.02902465	0.056675456			542	0.02993943	0.03100381
543	0.03792056		543	0.00528507	0.02960601	0.057810658			543	0.02946251	0.03052689
544	0.03791333		544	0.00479891	0.02911985	0.05686135			544	0.02828705	0.02935143
545	0.03797289		545	0.0052196	0.02954054	0.057682817			545	0.02965716	0.03072154
546	0.03851043		546	0.00542035	0.02974129	0.058074815			546	0.02930177	0.03036615
547	0.03889461		547	0.00535668	0.02967762	0.057950489			547	0.0293983	0.03046268
548	0.03888743		548	0.00552749	0.02984843	0.058284024			548	0.02911759	0.03018197
549	0.0384554		549	0.00572499	0.03004593	0.058669675			549	0.02783177	0.02889615
550	0.03837056		550	0.00622388	0.03054482	0.059643841			550	0.02786275	0.02892713
551	0.03964688		551	0.00651675	0.03083769	0.060215718			551	0.02817701	0.02924139
552	0.03921914		552	0.00599716	0.0303181	0.059201133			552	0.02914551	0.03020989
553	0.04029734		553	0.00642127	0.03074221	0.060029278			553	0.02982134	0.03088572
554	0.04051029		554	0.0066396	0.03096054	0.060455604			554	0.0293882	0.03045258
555	0.04070723		555	0.00716969	0.03149063	0.061490692			555	0.02919704	0.03026142
556	0.04048323		556	0.00740595	0.03172689	0.061952029			556	0.02917503	0.03023941
557	0.03949575		557	0.00729751	0.03161845	0.061740282			557	0.02822768	0.02929206
558	0.04121476		558	0.00740282	0.03172376	0.061945918			558	0.02955777	0.03062215
559	0.04229454		559	0.00788913	0.03221007	0.062895519			559	0.0290444	0.03010878
560	0.04109022		560	0.00738759	0.03170853	0.061916178			560	0.02905247	0.03011685
561	0.04261797		561	0.00818508	0.03250602	0.06347341			561	0.03050316	0.03156754
562	0.04249908		562	0.00820304	0.03252398	0.06350848			562	0.02968742	0.0307518
563	0.04301911		563	0.00806226	0.0323832	0.063233584			563	0.02966301	0.03072739
564	0.04413911		564	0.00883036	0.0331513	0.064733427			564	0.03054809	0.03161247
565	0.04507047		565	0.00870786	0.0330288	0.064494225			565	0.03031197	0.03137635
566	0.04572822		566	0.00888024	0.03320118	0.064830826			566	0.0315157	0.03258008
567	0.04596802		567	0.00903248	0.03335342	0.0651281			567	0.0313325	0.03239688
568	0.04550354		568	0.00936987	0.03369081	0.06578691			568	0.03118733	0.03225171
569	0.04534561		569	0.00904476	0.0333657	0.065152078			569	0.03149735	0.03256173
570	0.04647573		570	0.00967482	0.03399576	0.066382375			570	0.03249114	0.03355552
571	0.04711937		571	0.00948828	0.03380922	0.066018125			571	0.03173789	0.03280227
572	0.04808161		572	0.01004119	0.03436213	0.067097774			572	0.03218245	0.03324683
573	0.04827638		573	0.01032758	0.03464852	0.067656998			573	0.03220304	0.03326742
574	0.04840148		574	0.01011247	0.03443341	0.06723696			574	0.03297812	0.0340425
575	0.04929634		575	0.01035231	0.03467325	0.067705287			575	0.0332281	0.03429248
576	0.0486644		576	0.01011671	0.03443765	0.067245239			576	0.03322875	0.03429313
577	0.04912667		577	0.01083515	0.03515609	0.068648113			577	0.03206354	0.03312792
578	0.04825883		578	0.01134545	0.03566639	0.069644558			578	0.03310619	0.03417057
579	0.04951928		579	0.0108962	0.03521714	0.068767323			579	0.03277365	0.03383803
580	0.05027156		580	0.01145373	0.03577467	0.069855993			580	0.0333941	0.03445848
581	0.04921239		581	0.01117377	0.03549471	0.069309325			581	0.0317225	0.03278688
582	0.05086475		582	0.01227447	0.03659541	0.071458624			582	0.03158703	0.03265141
583	0.05028812		583	0.01162335	0.03594429	0.070187204			583	0.03197272	0.0330371
584	0.05098628		584	0.01232185	0.03664279	0.071551142			584	0.03299606	0.03406044
585	0.05099053		585	0.01187036	0.0361913	0.070669532			585	0.03348518	0.03454956
586	0.05307953		586	0.01258778	0.03690872	0.072070414			586	0.0332711	0.03433548
587	0.05192091		587	0.0118028	0.03612374	0.07053761			587	0.03361411	0.03467849
588	0.0528951		588	0.01270206	0.037023	0.072293565			588	0.03359338	0.03465776
589	0.05548491		589	0.01292023	0.03724117	0.072719578			589	0.03392665	0.03499103
590	0.05516821		590	0.01293682	0.03725776	0.072751973			590	0.03442327	0.03548765
591	0.05603453		591	0.01272328	0.03704422	0.072335001			591	0.03397671	0.03504109
592	0.0567255		592	0.01325894	0.03757988	0.073380966			592	0.03491037	0.03597475
593	0.05746337		593	0.013264	0.03758494	0.073390846			593	0.03504365	0.03610803
594	0.05851654		594	0.01329505	0.03761599	0.073451477			594	0.03557708	0.03664146
595	0.05884605		595	0.01317085	0.03749179	0.073208955			595	0.03593617	0.03700055
596	0.06078714		596	0.01354739	0.03786833	0.073944212			596	0.03543321	0.03649759
597	0.06008766		597	0.01374458	0.03806552	0.074329259			597	0.03746648	0.03853086
598	0.06113962		598	0.01368914	0.03801008	0.074221003			598	0.03630035	0.03736473
599	0.06169683		599	0.01388328	0.03820422	0.074600093			599	0.03652958	0.03759396
600	0.06231124		600	0.01411967	0.03844061	0.075061684			600	0.03584753	0.03691191
601	0.06334361		601	0.01438386	0.0387048	0.075577559			601	0.03581061	0.03687499
602	0.06427351		602	0.01474284	0.03906378	0.076278527			602	0.03718513	0.03824951
603	0.06511301		603	0.01430184	0.03862278	0.075417401			603	0.03746056	0.03852494
604	0.06679466		604	0.01446966	0.0387906	0.075745098			604	0.03623605	0.03730043
605	0.06770081		605	0.01460763	0.03892857	0.076014507			605	0.03748082	0.0385452
606	0.06895615		606	0.01469794	0.03901888	0.076190853			606	0.03808761	0.03915199
607	0.06808795		607	0.01466884	0.03898978	0.07613403			607	0.03787237	0.03893675
608	0.06893506		608	0.01474973	0.03907067	0.076291981			608	0.03757634	0.03864072
609	0.07065713		609	0.01557492	0.03989586	0.077903302			609	0.03774921	0.03881359
610	0.07128342		610	0.01525505	0.03957599	0.077278703			610	0.03879402	0.0398584
611	0.07172016		611	0.01484507	0.03916601	0.076478148			611	0.03763433	0.03869871
612	0.07060018		612	0.01465681	0.03897775	0.076110539			612	0.03761427	0.03867865
613	0.0721785		613	0.01528419	0.03960513	0.077335603			613	0.03688604	0.03795042
614	0.07242086		614	0.01510672	0.03942766	0.076989064			614	0.03722286	0.03828724
615	0.0728968		615	0.01532963	0.03965057	0.077424332			615	0.03745269	0.03851707
616	0.07353453		616	0.01542218	0.03974312	0.077605052			616	0.03653953	0.03760391
617	0.07313976		617	0.01576673	0.04008767	0.078277843			617	0.0373364	0.03840078
618	0.07310118		618	0.0149987	0.03931964	0.076778137			618	0.03678765	0.03785203
619	0.07506323		619	0.01567198	0.03999292	0.078092828			619	0.03730975	0.03837413
620	0.07474424		620	0.01534082	0.03966176	0.077446183			620	0.03696829	0.03803267
621	0.0758522		621	0.01578828	0.04010922	0.078319923			621	0.03732593	0.03839031
622	0.07464212		622	0.01558944	0.03991038	0.077931655			622	0.03704918	0.03811356
623	0.07538375		623	0.01565604	0.03997698	0.078061702			623	0.03826636	0.03933074
624	0.07632642		624	0.01591619	0.04023713	0.078569688			624	0.03769359	0.03875797
625	0.07574493		625	0.01487257	0.03919351	0.076531847			625	0.03836618	0.03943056
626	0.07765004		626	0.01617783	0.04049877	0.079080584			626	0.0384923	0.03955668
627	0.07724728		627	0.0152636	0.03958454	0.077295398			627	0.03815583	0.03922021
628	0.07777808		628	0.0153227	0.03964364	0.0774108			628	0.03779786	0.03886224
629	0.07793663		629	0.01575083	0.04007177	0.078246795			629	0.03910604	0.04017042
630	0.07540862		630	0.01524009	0.03956103	0.077249491			630	0.03811416	0.03917854
631	0.07763087		631	0.01532648	0.03964742	0.077418181			631	0.03820391	0.03926829
632	0.07712514		632	0.01580886	0.0401298	0.078360109			632	0.03811025	0.03917463
633	0.07738225		633	0.01587443	0.04019537	0.078488145			633	0.03743474	0.03849912
634	0.07676368		634	0.01544017	0.03976111	0.07764018			634	0.03871324	0.03977762
635	0.076685		635	0.0158368	0.04015774	0.078414666			635	0.03961399	0.04067837
636	0.07730548		636	0.01514617	0.03946711	0.077066096			636	0.03738573	0.03845011
637	0.07716389		637	0.01538263	0.03970357	0.077527824			637	0.03776367	0.03882805
638	0.07701135		638	0.0154044	0.03972534	0.077570333			638	0.03843698	0.03950136
639	0.07728291		639	0.01531669	0.03963763	0.077399065			639	0.03846641	0.03953079
640	0.07697084		640	0.01548316	0.0398041	0.077724125			640	0.03806478	0.03912916
641	0.07720628		641	0.01504507	0.03936601	0.076868682			641	0.03810121	0.03916559
642	0.07747127		642	0.01541456	0.0397355	0.077590172			642	0.03841243	0.03947681
643	0.07729293		643	0.01571723	0.04003817	0.078181186			643	0.03781189	0.03887627
644	0.07814174		644	0.01572688	0.04004782	0.078200029			644	0.03860237	0.03966675
645	0.07957166		645	0.01586924	0.04019018	0.078478011			645	0.03839484	0.03945922
646	0.0785007		646	0.01450659	0.03882753	0.07581721			646	0.03798066	0.03904504
647	0.07987303		647	0.01491406	0.039235	0.076612863			647	0.03848578	0.03955016
648	0.08122517		648	0.01571173	0.04003267	0.078170446			648	0.03753942	0.0386038
649	0.08089516		649	0.01543348	0.03975442	0.077627117			649	0.03715813	0.03822251
650	0.08112779		650	0.01568002	0.04000096	0.078108527			650	0.03847535	0.03953973
651	0.08274362		651	0.01553704	0.03985798	0.077829335			651	0.03866774	0.03973212
652	0.08410567		652	0.01452872	0.03884966	0.075860422			652	0.03910093	0.04016531
653	0.08564608		653	0.01519044	0.03951138	0.077152541			653	0.03782714	0.03889152
654	0.08658968		654	0.01471782	0.03903876	0.076229672			654	0.03968906	0.04075344
655	0.08589358		655	0.01485834	0.03917928	0.07650406			655	0.0386392	0.03970358
656	0.08745141		656	0.01472495	0.03904589	0.076243594			656	0.0386166	0.03968098
657	0.08934571		657	0.01499932	0.03932026	0.076779347			657	0.03912903	0.04019341
658	0.0919961		658	0.01434259	0.03866353	0.075496973			658	0.04026673	0.04133111
659	0.092473		659	0.01434444	0.03866538	0.075500585			659	0.03953639	0.04060077
660	0.09357466		660	0.01446127	0.03878221	0.075728715			660	0.04084768	0.04191206
661	0.09484529		661	0.01345282	0.03777376	0.073759549			661	0.04043591	0.04150029
662	0.0943128		662	0.01360298	0.03792392	0.074052761			662	0.03900482	0.0400692
663	0.09730225		663	0.01405494	0.03837588	0.074935288			663	0.03815489	0.03921927
664	0.09671945		664	0.01361908	0.03794002	0.074084199			664	0.03634307	0.03740745
665	0.09919164		665	0.01312464	0.03744558	0.073118723			665	0.03838279	0.03944717
666	0.10031776		666	0.01404078	0.03836172	0.074907638			666	0.03949611	0.04056049
667	0.1000967		667	0.01266873	0.03698967	0.072228483			667	0.03873504	0.03979942
668	0.10100968		668	0.01257779	0.03689873	0.072050907			668	0.03753313	0.03859751
669	0.1027058		669	0.01299233	0.03731327	0.072860365			669	0.03864043	0.03970481
670	0.1032711		670	0.01242955	0.03675049	0.071761444			670	0.03898583	0.04005021
671	0.1041634		671	0.01214071	0.03646165	0.071197436			671	0.03822978	0.03929416
672	0.10595162		672	0.01158612	0.03590706	0.070114507			672	0.03751156	0.03857594
673	0.10630149		673	0.01116064	0.03548158	0.069283686			673	0.03657103	0.03763541
674	0.10671374		674	0.01082173	0.03514267	0.068621908			674	0.03642241	0.03748679
675	0.10671967		675	0.01043193	0.03475287	0.067860759			675	0.03559304	0.03665742
676	0.1069652		676	0.0106676	0.03498854	0.068320943			676	0.03659684	0.03766122
677	0.10772426		677	0.01034122	0.03466216	0.067683632			677	0.03686353	0.03792791
678	0.10701564		678	0.00933787	0.03365881	0.065724424			678	0.03629973	0.03736411
679	0.1076804		679	0.00853833	0.03285927	0.06416319			679	0.03517225	0.03623663
680	0.10785978		680	0.00882846	0.0331494	0.064729717			680	0.036583	0.03764738
681	0.10821029		681	0.00889248	0.03321342	0.064854726			681	0.03541315	0.03647753
682	0.1064286		682	0.00817066	0.0324916	0.063445253			682	0.03397968	0.03504406
683	0.10534972		683	0.0072402	0.03156114	0.061628375			683	0.03268487	0.03374925
684	0.10310923		684	0.00695294	0.03127388	0.061067452			684	0.03329596	0.03436034
685	0.10260017		685	0.00655798	0.03087892	0.060296227			685	0.03163724	0.03270162
686	0.09943053		686	0.00576028	0.03008122	0.058738585			686	0.03113379	0.03219817
687	0.09837776		687	0.00484645	0.02916739	0.05695418			687	0.03069297	0.03175735
688	0.09813496		688	0.00552165	0.02984259	0.05827262			688	0.03055662	0.031621
689	0.09566079		689	0.00474524	0.02906618	0.056756551			689	0.02966628	0.03073066
690	0.09384358		690	0.00443071	0.02875165	0.056142378			690	0.02872819	0.02979257
691	0.09183327		691	0.00418381	0.02850475	0.055660265			691	0.02925505	0.03031943
692	0.09063418		692	0.00417214	0.02849308	0.055637478			692	0.02948624	0.03055062
693	0.08711854		693	0.0036359	0.02795684	0.05459038			693	0.028572	0.02963638
694	0.08453872		694	0.00287723	0.02719817	0.05310895			694	0.02668392	0.0277483
695	0.08322022		695	0.00268812	0.02700906	0.052739682			695	0.02879953	0.02986391
696	0.08078157		696	0.00235505	0.02667599	0.052089307			696	0.02765245	0.02871683
697	0.07602159		697	0.00162817	0.02594911	0.050669953			697	0.0273054	0.02836978
698	0.07546345		698	0.00069508	0.02501602	0.04884794			698	0.02787925	0.02894363
699	0.07318466		699	0.00102166	0.0253426	0.049485641			699	0.02786921	0.02893359
700	0.07081834		700	0.00094312	0.02526406	0.049332279			700	0.02585099	0.02691537
701	0.06641238		701	0.0002323	0.02455324	0.047944285			701	0.02603797	0.02710235
702	0.0625622		702	0.00050506	0.024826	0.048476894			702	0.02612678	0.02719116
703	0.06110106		703	-0.00058773	0.02373321	0.04634304			703	0.02528023	0.02634461
704	0.05744492		704	-0.00053502	0.02378592	0.046445965			704	0.02433807	0.02540245
705	0.05553962		705	-0.00046072	0.02386022	0.046591048			705	0.024445	0.02550938
706	0.05142821		706	-0.00105047	0.02327047	0.045439463			706	0.02383772	0.0249021
707	0.04902973		707	-0.00083166	0.02348928	0.045866726			707	0.0230759	0.02414028
708	0.04704526		708	-0.00141738	0.02290356	0.04472301			708	0.02149078	0.02255516
709	0.0452554		709	-0.00133021	0.02299073	0.044893224			709	0.02257997	0.02364435
710	0.04329746		710	-0.00137104	0.0229499	0.044813497			710	0.02217341	0.02323779
711	0.04164145		711	-0.00178586	0.02253508	0.044003492			711	0.0217935	0.02285788
712	0.03884544		712	-0.00236733	0.02195361	0.042868075			712	0.01942866	0.02049304
713	0.03671553		713	-0.00281625	0.02150469	0.041991484			713	0.01928973	0.02035411
714	0.03454585		714	-0.00246611	0.02185483	0.04267519			714	0.02049934	0.02156372
715	0.03384781		715	-0.00303077	0.02129017	0.041572598			715	0.01936941	0.02043379
716	0.03395883		716	-0.00226852	0.02205242	0.043061018			716	0.02172052	0.0227849
717	0.03015968		717	-0.00324038	0.02108056	0.041163299			717	0.0195756	0.02063998
718	0.03133375		718	-0.00302758	0.02129336	0.041578827			718	0.02054162	0.021606
719	0.02993914		719	-0.00298375	0.02133719	0.041664412			719	0.02067851	0.02174289
720	0.02799204		720	-0.00356138	0.02075956	0.040536494			720	0.01841097	0.01947535
721	0.02656858		721	-0.00345782	0.02086312	0.040738712			721	0.01897726	0.02004164
722	0.0271246		722	-0.00319569	0.02112525	0.041250564			722	0.01953705	0.02060143
723	0.02600114		723	-0.00334864	0.0209723	0.040951904			723	0.01929798	0.02036236
724	0.02615968		724	-0.00284101	0.02147993	0.041943136			724	0.01871749	0.01978187
725	0.02441016		725	-0.0033853	0.02093564	0.040880319			725	0.0192809	0.02034528
726	0.02422601		726	-0.00359901	0.02072193	0.040463015			726	0.01902005	0.02008443
727	0.02405637		727	-0.00296947	0.02135147	0.041692296			727	0.02024717	0.02131155
728	0.0230744		728	-0.00388575	0.02043519	0.039903107			728	0.01936203	0.02042641
729	0.02315023		729	-0.00359382	0.02072712	0.040473149			729	0.01880738	0.01987176
730	0.0220442		730	-0.00416424	0.0201567	0.039359309			730	0.01577862	0.016843
731	0.02212223		731	-0.00353759	0.02078335	0.040582947			731	0.01891988	0.01998426
732	0.02113672		732	-0.00395185	0.02036909	0.039774036			732	0.01805125	0.01911563
733	0.02034063		733	-0.00452066	0.01980028	0.03866334			733	0.01691819	0.01798257
734	0.02179113		734	-0.0031926	0.02112834	0.041256598			734	0.01886056	0.01992494
735	0.0203631		735	-0.0039661	0.02035484	0.03974621			735	0.0181941	0.01925848
736	0.0200273		736	-0.00412525	0.02019569	0.039435444			736	0.01769681	0.01876119
737	0.02014942		737	-0.00463613	0.01968481	0.038437865			737	0.01838438	0.01944876
738	0.01998442		738	-0.00376351	0.02055743	0.040141801			738	0.01642786	0.01749224
739	0.01967949		739	-0.00416804	0.0201529	0.039351889			739	0.01616576	0.01723014
740	0.01889793		740	-0.00427128	0.02004966	0.039150296			740	0.01761519	0.01867957
741	0.0199457		741	-0.00360785	0.02071309	0.040445753			741	0.01748827	0.01855265
742	0.01943323		742	-0.00390171	0.02041923	0.039871943			742	0.01672421	0.01778859
743	0.01946476		743	-0.00357246	0.02074848	0.040514858			743	0.01857613	0.01964051
744	0.01946331		744	-0.00388841	0.02043253	0.039897913			744	0.0164906	0.01755498
745	0.01849377		745	-0.00410359	0.02021735	0.039477738			745	0.01670813	0.01777251
746	0.02009188		746	-0.00376729	0.02055365	0.04013442			746	0.01680342	0.0178678
747	0.01926805		747	-0.00377231	0.02054863	0.040124618			747	0.01820536	0.01926974
748	0.01784396		748	-0.00434545	0.01997549	0.039005466			748	0.01715014	0.01821452
749	0.0188617		749	-0.00465823	0.01966271	0.038394711			749	0.01778344	0.01884782
750	0.01738752		750	-0.00463174	0.0196892	0.038446438			750	0.01747499	0.01853937
751	0.01819932		751	-0.00416529	0.02015565	0.039357259			751	0.01671422	0.0177786
752	0.01859394		752	-0.00416535	0.02015559	0.039357142			752	0.01731203	0.01837641
753	0.01832161		753	-0.00415295	0.02016799	0.039381355			753	0.01839164	0.01945602
754	0.01666185		754	-0.0043283	0.01999264	0.039038955			754	0.01737562	0.01844
755	0.01889229		755	-0.00419974	0.0201212	0.039289989			755	0.01765174	0.01871612
756	0.01816263		756	-0.00461846	0.01970248	0.038472369			756	0.01783167	0.01889605
757	0.01819006		757	-0.00431878	0.02000216	0.039057544			757	0.01648385	0.01754823
758	0.0174329		758	-0.00370583	0.02061511	0.040254431			758	0.01676329	0.01782767
759	0.01815931		759	-0.00413874	0.0201822	0.039409102			759	0.01656157	0.01762595
760	0.01866813		760	-0.00389751	0.02042343	0.039880144			760	0.01762993	0.01869431
761	0.01772897		761	-0.00394141	0.02037953	0.039794422			761	0.01716334	0.01822772
762	0.01803958		762	-0.00468471	0.01963623	0.038343005			762	0.01727265	0.01833703
763	0.01785611		763	-0.00355898	0.02076196	0.04054118			763	0.0166591	0.01772348
764	0.01556839		764	-0.00433174	0.0199892	0.039032237			764	0.01481747	0.01588185
765	0.01549713		765	-0.00431688	0.02000406	0.039061254			765	0.01455339	0.01561777
766	0.0172007		766	-0.00404417	0.02027677	0.039593766			766	0.01609554	0.01715992
767	0.01702707		767	-0.00493196	0.01938898	0.037860208			767	0.01670245	0.01776683
768	0.01743308		768	-0.00403935	0.02028159	0.039603178			768	0.0178404	0.01890478
769	0.01822516		769	-0.00343405	0.02088689	0.040785127			769	0.01767924	0.01874362
770	0.01820761		770	-0.00365825	0.02066269	0.040347339			770	0.01687847	0.01794285
771	0.01918025		771	-0.00370471	0.02061623	0.040256618			771	0.01780422	0.0188686
772	0.01855576		772	-0.00323463	0.02108631	0.041174527			772	0.01905539	0.02011977
773	0.01859076		773	-0.00371049	0.02061045	0.040245331			773	0.01840308	0.01946746
774	0.01831705		774	-0.00474731	0.01957363	0.038220768			774	0.0187715	0.01983588
775	0.01873361		775	-0.00433249	0.01998845	0.039030773			775	0.01620459	0.01726897
776	0.01782159		776	-0.00361475	0.02070619	0.04043228			776	0.01680631	0.01787069
777	0.01904684		777	-0.00401794	0.020303	0.039644984			777	0.01776277	0.01882715
778	0.0199202		778	-0.0028017	0.02151924	0.042019895			778	0.01935354	0.02041792
779	0.01865865		779	-0.00440223	0.01991871	0.038894594			779	0.01909119	0.02015557
780	0.01832172		780	-0.00408987	0.02023107	0.039504529			780	0.0181183	0.01918268
781	0.01732058		781	-0.00466262	0.01965832	0.038386139			781	0.01866613	0.01973051
782	0.01799085		782	-0.00400393	0.02031701	0.039672341			782	0.01767106	0.01873544
783	0.01881575		783	-0.004021	0.02029994	0.039639009			783	0.01832562	0.01939
784	0.01857942		784	-0.00382881	0.02049213	0.040014292			784	0.0191753	0.02023968
785	0.01751783		785	-0.00392427	0.02039667	0.03982789			785	0.01824417	0.01930855
786	0.01799523		786	-0.0038626	0.02045834	0.039948311			786	0.01649731	0.01756169
787	0.01855255		787	-0.00272779	0.02159315	0.042164217			787	0.01749975	0.01856413
788	0.01792475		788	-0.00385975	0.02046119	0.039953876			788	0.01808745	0.01915183
789	0.0165658		789	-0.00398367	0.02033727	0.039711902			789	0.01696907	0.01803345
790	0.01664378		790	-0.00480162	0.01951932	0.038114719			790	0.01685146	0.01791584
791	0.01783353		791	-0.00423351	0.02008743	0.039224048			791	0.01841325	0.01947763
792	0.01746971		792	-0.00449334	0.0198276	0.038716687			792	0.01644782	0.0175122
793	0.01867225		793	-0.00450331	0.01981763	0.038697219			793	0.01771103	0.01877541
794	0.01836375		794	-0.0035975	0.02072344	0.040465963			794	0.01763962	0.018704
795	0.01645642		795	-0.00379485	0.02052609	0.040080605			795	0.01759822	0.0186626
796	0.01835034		796	-0.0033901	0.02093084	0.040870946			796	0.01798522	0.0190496
797	0.01626633		797	-0.00422741	0.02009353	0.039235959			797	0.01544642	0.0165108
798	0.01819828		798	-0.00421238	0.02010856	0.039265308			798	0.01795231	0.01901669
799	0.01812417		799	-0.003261	0.02105994	0.041123035			799	0.01790797	0.01897235
800	0.0196105		800	-0.00471044	0.0196105	0.038292763			800	0.01854612	0.0196105
801	0.01763621		801	-0.00357877	0.02074217	0.040502537			801	0.01735089	0.01841527
802	0.01795759		802	-0.00476999	0.01955095	0.038176481			802	0.01878381	0.01984819
803	0.01912904		803	-0.00271613	0.02160481	0.042186985			803	0.02033653	0.02140091
804	0.01781782		804	-0.00485722	0.01946372	0.03800615			804	0.01775086	0.01881524
805	0.01913253		805	-0.00453256	0.01978838	0.038640103			805	0.01791456	0.01897894
806	0.01877869		806	-0.00339181	0.02092913	0.040867607			806	0.01854705	0.01961143
807	0.0180286		807	-0.0039271	0.02039384	0.039822364			807	0.01796073	0.01902511
808	0.01736155		808	-0.00389416	0.02042678	0.039886685			808	0.0162665	0.01733088
809	0.01728631		809	-0.00376486	0.02055608	0.040139165			809	0.0176907	0.01875508
810	0.01883298		810	-0.00358287	0.02073807	0.040494531			810	0.01889063	0.01995501
811	0.0186304		811	-0.00373119	0.02058975	0.040204911			811	0.01841425	0.01947863
812	0.01857091		812	-0.00387002	0.02045092	0.039933823			812	0.0194193	0.02048368
813	0.01823598		813	-0.00339013	0.02093081	0.040870888			813	0.01773743	0.01880181
814	0.0170719		814	-0.00391252	0.02040842	0.039850834			814	0.01812949	0.01919387
815	0.01765964		815	-0.00359549	0.02072545	0.040469888			815	0.01820274	0.01926712
816	0.0203574		816	-0.00309355	0.02122739	0.041450009			816	0.01933802	0.0204024
817	0.01656683		817	-0.00344789	0.02087305	0.040758102			817	0.01904698	0.02011136
818	0.01732886		818	-0.0037213	0.02059964	0.040224223			818	0.01648853	0.01755291
819	0.01718602		819	-0.00355205	0.02076889	0.040554712			819	0.0174507	0.01851508
820	0.01609654		820	-0.00396669	0.02035425	0.039745058			820	0.01688574	0.01795012
821	0.01619919		821	-0.00365618	0.02066476	0.040351381			821	0.01522818	0.01629256
822	0.01388991		822	-0.00350676	0.02081418	0.040643148			822	0.01335153	0.01441591
823	0.01153939		823	-0.00333447	0.02098647	0.040979573			823	0.01210133	0.01316571
824	0.01110017		824	-0.00365608	0.02066486	0.040351576			824	0.01173512	0.0127995
825	0.01284524		825	-0.00318546	0.02113548	0.04127054			825	0.01360041	0.01466479
826	0.0137481		826	-0.00367511	0.02064583	0.040314417			826	0.01467563	0.01574001
827	0.01457189		827	-0.0036709	0.02065004	0.040322638			827	0.01402144	0.01508582
828	0.0127283		828	-0.00337566	0.02094528	0.040899143			828	0.01321324	0.01427762
829	0.01343897		829	-0.00334078	0.02098016	0.040967252			829	0.01381578	0.01488016
830	0.01393569		830	-0.00357463	0.02074631	0.040510621			830	0.01578007	0.01684445
831	0.01673716		831	-0.00458033	0.01974061	0.038546824			831	0.01714379	0.01820817
832	0.01679487		832	-0.00346544	0.0208555	0.040723832			832	0.01656422	0.0176286
833	0.01659868		833	-0.00336817	0.02095277	0.040913768			833	0.01577213	0.01683651
834	0.01388772		834	-0.00355737	0.02076357	0.040544324			834	0.01430036	0.01536474
835	0.01366056		835	-0.00361445	0.02070649	0.040432866			835	0.0140033	0.01506768
836	0.01490655		836	-0.0030259	0.02129504	0.041582107			836	0.01507255	0.01613693
837	0.01591337		837	-0.00386132	0.02045962	0.039950811			837	0.01618196	0.01724634
838	0.01769218		838	-0.00328064	0.0210403	0.041084685			838	0.01674246	0.01780684
839	0.01817137		839	-0.0032567	0.02106424	0.041131432			839	0.01841836	0.01948274
840	0.01663183		840	-0.00464977	0.01967117	0.038411231			840	0.01771372	0.0187781
841	0.01553556		841	-0.00391649	0.02040445	0.039843082			841	0.01584728	0.01691166
842	0.01482213		842	-0.00331908	0.02100186	0.041009625			842	0.01586202	0.0169264
843	0.01792313		843	-0.00280463	0.02151631	0.042014174			843	0.01908323	0.02014761
844	0.01548972		844	-0.00416529	0.02015565	0.039357259			844	0.01779735	0.01886173
845	0.01815288		845	-0.00362605	0.02069489	0.040410215			845	0.01745101	0.01851539
846	0.01845961		846	-0.00347964	0.0208413	0.040696104			846	0.01941816	0.02048254
847	0.01799496		847	-0.00390802	0.02041292	0.039859621			847	0.0193102	0.02037458
848	0.01714286		848	-0.003726	0.02059494	0.040215046			848	0.01760401	0.01866839
849	0.01920242		849	-0.00267257	0.02164837	0.042272043			849	0.01848039	0.01954477
850	0.0190718		850	-0.00361422	0.02070672	0.040433315			850	0.01787648	0.01894086
851	0.0185651		851	-0.0027616	0.02155934	0.042098197			851	0.01922371	0.02028809
852	0.01715531		852	-0.00363092	0.02069002	0.040400705			852	0.01981594	0.02088032
853	0.01805274		853	-0.00339177	0.02092917	0.040867685			853	0.01999541	0.02105979
854	0.01777989		854	-0.00383344	0.0204875	0.040005251			854	0.01893126	0.01999564
855	0.01851081		855	-0.00356	0.02076094	0.040539188			855	0.01669132	0.0177557
856	0.01956565		856	-0.00268261	0.02163833	0.042252438			856	0.01912755	0.02019193
857	0.01750896		857	-0.00400586	0.02031508	0.039668572			857	0.01904958	0.02011396
858	0.01943898		858	-0.00321884	0.0211021	0.04120536			858	0.01852257	0.01958695
859	0.01983782		859	-0.00163734	0.0226836	0.044293502			859	0.01930972	0.0203741
860	0.01883783		860	-0.00394516	0.02037578	0.039787099			860	0.01769915	0.01876353
861	0.01732603		861	-0.0029363	0.02138464	0.041757066			861	0.01717078	0.01823516
862	0.01736127		862	-0.00338293	0.02093801	0.040884947			862	0.01906388	0.02012826
863	0.0188426		863	-0.00306407	0.02125687	0.041507574			863	0.01892348	0.01998786
864	0.01744915		864	-0.00307598	0.02124496	0.041484318			864	0.01823847	0.01930285
865	0.01771379		865	-0.00246272	0.02185822	0.04268181			865	0.01928239	0.02034677
866	0.01798221		866	-0.00301709	0.02130385	0.04159931			866	0.01837087	0.01943525
867	0.01653878		867	-0.00429565	0.02002529	0.039102709			867	0.0201177	0.02118208
868	0.01772815		868	-0.00369857	0.02062237	0.040268607			868	0.01774958	0.01881396
869	0.01834132		869	-0.0025232	0.02179774	0.042563713			869	0.01769267	0.01875705
870	0.01827399		870	-0.0030238	0.02129714	0.041586208			870	0.01732641	0.01839079
871	0.01850058		871	-0.00330431	0.02101663	0.041038465			871	0.01640085	0.01746523
872	0.01805947		872	-0.00352888	0.02079206	0.040599955			872	0.01778838	0.01885276
873	0.01721725		873	-0.00374045	0.02058049	0.04018683			873	0.01662704	0.01769142
874	0.01818		874	-0.00302258	0.02129836	0.04158859			874	0.01736941	0.01843379
875	0.01730824		875	-0.00363276	0.02068818	0.040397112			875	0.01693938	0.01800376
876	0.01659097		876	-0.00283021	0.02149073	0.041964225			876	0.01771641	0.01878079
877	0.01672924		877	-0.00330865	0.02101229	0.041029991			877	0.01666436	0.01772874
878	0.01570239		878	-0.00304242	0.02127852	0.041549849			878	0.01610527	0.01716965
879	0.01707665		879	-0.00352382	0.02079712	0.040609836			879	0.01754781	0.01861219
880	0.0145905		880	-0.00383971	0.02048123	0.039993008			880	0.01495192	0.0160163
881	0.01286691		881	-0.00313734	0.0211836	0.041364502			881	0.01232833	0.01339271
882	0.01066077		882	-0.00332424	0.0209967	0.040999549			882	0.01140556	0.01246994
883	0.01153327		883	-0.00315964	0.0211613	0.041320958			883	0.01196159	0.01302597
884	0.01287412		884	-0.00301041	0.02131053	0.041612354			884	0.01338874	0.01445312
885	0.01375374		885	-0.00276348	0.02155746	0.042094526			885	0.01457258	0.01563696
886	0.01411172		886	-0.00322341	0.02109753	0.041196436			886	0.01485985	0.01592423
887	0.01530173		887	-0.00281174	0.0215092	0.04200029			887	0.01606236	0.01712674
888	0.01480811		888	-0.00319957	0.02112137	0.041242988			888	0.0151765	0.01624088
889	0.01429427		889	-0.003291	0.02102994	0.041064455			889	0.01593781	0.01700219
890	0.01664557		890	-0.00357219	0.02074875	0.040515385			890	0.0168836	0.01794798
891	0.0159352		891	-0.00267326	0.02164768	0.042270696			891	0.01659682	0.0176612
892	0.01568243		892	-0.00387827	0.02044267	0.039917713			892	0.01530554	0.01636992
893	0.01510919		893	-0.00336978	0.02095116	0.040910624			893	0.01494976	0.01601414
894	0.01349957		894	-0.00280358	0.02151736	0.042016224			894	0.01525629	0.01632067
895	0.0132117		895	-0.00282001	0.02150093	0.041984142			895	0.01387869	0.01494307
896	0.01216903		896	-0.0027458	0.02157514	0.042129049			896	0.01277972	0.0138441
897	0.01362431		897	-0.0030944	0.02122654	0.04144835			897	0.01391701	0.01498139
898	0.01478274		898	-0.00281816	0.02150278	0.041987754			898	0.01656876	0.01763314
899	0.01522506		899	-0.00345052	0.02087042	0.040752966			899	0.01518388	0.01624826
900	0.01506456		900	-0.00298615	0.02133479	0.041659726			900	0.01452324	0.01558762
